D,00000055,     -1874668,
D,00000056,     -1871089,
D,00000057,     -1867716,
D,00000058,     -1865652,
D,00000059,     -1866339,
D,00000060,     -1868771,
D,00000061,     -1872069,
D,00000062,     -1875187,
D,00000063,     -1876824,
D,00000064,     -1876972,
D,00000065,     -1875549,
D,00000066,     -1873497,
D,00000067,     -1871254,
D,00000068,     -1869768,
D,00000069,     -1870541,
D,00000070,     -1873344,
D,00000071,     -1878007,
D,00000072,     -1883379,
D,00000073,     -1887386,
D,00000074,     -1888989,
D,00000075,     -1887306,
D,00000076,     -1883628,
D,00000077,     -1880514,
D,00000078,     -1879583,
D,00000079,     -1880849,
D,00000080,     -1883840,
D,00000081,     -1887632,
D,00000082,     -1891739,
D,00000083,     -1894519,
D,00000084,     -1894632,
D,00000085,     -1893123,
D,00000086,     -1889854,
D,00000087,     -1885901,
D,00000088,     -1883456,
D,00000089,     -1883939,
D,00000090,     -1885874,
D,00000091,     -1887809,
D,00000092,     -1889618,
D,00000093,     -1891212,
D,00000094,     -1891332,
D,00000095,     -1888665,
D,00000096,     -1885165,
D,00000097,     -1881232,
D,00000098,     -1878528,
D,00000099,     -1878711,
D,00000100,     -1881432,
D,00000101,     -1884809,
D,00000102,     -1888146,
D,00000103,     -1889988,
D,00000104,     -1889257,
D,00000105,     -1886885,
D,00000106,     -1883749,
D,00000107,     -1879849,
D,00000108,     -1877356,
D,00000109,     -1876442,
D,00000110,     -1877215,
D,00000111,     -1879265,
D,00000112,     -1881019,
D,00000113,     -1882065,
D,00000114,     -1880599,
D,00000115,     -1878382,
D,00000116,     -1874176,
D,00000117,     -1869649,
D,00000118,     -1867214,
D,00000119,     -1867371,
D,00000120,     -1869139,
D,00000121,     -1870909,
D,00000122,     -1873590,
D,00000123,     -1874395,
D,00000124,     -1872031,
D,00000125,     -1868132,
D,00000126,     -1863721,
D,00000127,     -1859564,
D,00000128,     -1858315,
D,00000129,     -1860156,
D,00000130,     -1863560,
D,00000131,     -1867904,
D,00000132,     -1871065,
D,00000133,     -1873252,
D,00000134,     -1874022,
D,00000135,     -1873483,
D,00000136,     -1871663,
D,00000137,     -1870691,
D,00000138,     -1871849,
D,00000139,     -1874913,
D,00000140,     -1878163,
D,00000141,     -1883252,
D,00000142,     -1888638,
D,00000143,     -1893534,
D,00000144,     -1896712,
D,00000145,     -1896940,
D,00000146,     -1895353,
D,00000147,     -1892169,
D,00000148,     -1888537,
D,00000149,     -1888099,
D,00000150,     -1891594,
D,00000151,     -1897899,
D,00000152,     -1904952,
D,00000153,     -1910298,
D,00000154,     -1912356,
D,00000155,     -1911673,
D,00000156,     -1911289,
D,00000157,     -1909277,
D,00000158,     -1908206,
D,00000159,     -1908283,
D,00000160,     -1909846,
D,00000161,     -1912342,
D,00000162,     -1912803,
D,00000163,     -1912244,
D,00000164,     -1907239,
D,00000165,     -1899492,
D,00000166,     -1891086,
D,00000167,     -1888917,
D,00000168,     -1886055,
D,00000169,     -1883316,
D,00000170,     -1882981,
D,00000171,     -1882212,
D,00000172,     -1883956,
D,00000173,     -1887879,
D,00000174,     -1887951,
D,00000175,     -1882837,
D,00000176,     -1875637,
D,00000177,     -1866355,
D,00000178,     -1858192,
D,00000179,     -1849898,
D,00000180,     -1852202,
D,00000181,     -1858827,
D,00000182,     -1868199,
D,00000183,     -1874157,
D,00000184,     -1873869,
D,00000185,     -1871506,
D,00000186,     -1866174,
D,00000187,     -1866134,
D,00000188,     -1865759,
D,00000189,     -1867897,
D,00000190,     -1872657,
D,00000191,     -1875586,
D,00000192,     -1879897,
D,00000193,     -1893068,
D,00000194,     -1892684,
D,00000195,     -1890416,
D,00000196,     -1891124,
D,00000197,     -1891799,
D,00000198,     -1891132,
D,00000199,     -1893408,
D,00000200,     -1897220,
D,00000201,     -1899647,
D,00000202,     -1901442,
D,00000203,     -1902347,
D,00000204,     -1901232,
D,00000205,     -1897708,
D,00000206,     -1893506,
D,00000207,     -1889880,
D,00000208,     -1887231,
D,00000209,     -1884776,
D,00000210,     -1879181,
D,00000211,     -1874636,
D,00000212,     -1884532,
D,00000213,     -1899972,
D,00000214,     -1915186,
D,00000215,     -1922139,
D,00000216,     -1929277,
D,00000217,     -1936755,
D,00000218,     -1938329,
D,00000219,     -1935851,
D,00000220,     -1935309,
D,00000221,     -1937614,
D,00000222,     -1941971,
D,00000223,     -1946870,
D,00000224,     -1950470,
D,00000225,     -1950096,
D,00000226,     -1946500,
D,00000227,     -1941472,
D,00000228,     -1935296,
D,00000229,     -1932493,
D,00000230,     -1932014,
D,00000231,     -1930544,
D,00000232,     -1924186,
D,00000233,     -1912234,
D,00000234,     -1894541,
D,00000235,     -1885841,
D,00000236,     -1886591,
D,00000237,     -1886626,
D,00000238,     -1886576,
D,00000239,     -1889340,
D,00000240,     -1893297,
D,00000241,     -1898630,
D,00000242,     -1903309,
D,00000243,     -1906386,
D,00000244,     -1906652,
D,00000245,     -1904333,
D,00000246,     -1901124,
D,00000247,     -1897976,
D,00000248,     -1896004,
D,00000249,     -1896762,
D,00000250,     -1899343,
D,00000251,     -1903621,
D,00000252,     -1908312,
D,00000253,     -1911178,
D,00000254,     -1910948,
D,00000255,     -1907856,
D,00000000,     -1902634,
D,00000001,     -1897566,
D,00000002,     -1893242,
D,00000003,     -1891369,
D,00000004,     -1892383,
D,00000005,     -1895175,
D,00000006,     -1898387,
D,00000007,     -1901239,
D,00000008,     -1902369,
D,00000009,     -1901524,
D,00000010,     -1898977,
D,00000011,     -1895477,
D,00000012,     -1891680,
D,00000013,     -1891218,
D,00000014,     -1894051,
D,00000015,     -1898843,
D,00000016,     -1903550,
D,00000017,     -1908102,
D,00000018,     -1909938,
D,00000019,     -1908543,
D,00000020,     -1904016,
D,00000021,     -1898376,
D,00000022,     -1893986,
D,00000023,     -1893579,
D,00000024,     -1895650,
D,00000025,     -1899296,
D,00000026,     -1904215,
D,00000027,     -1907536,
D,00000028,     -1906146,
D,00000029,     -1901090,
D,00000030,     -1892867,
D,00000031,     -1884171,
D,00000032,     -1878252,
D,00000033,     -1876020,
D,00000034,     -1876601,
D,00000035,     -1879627,
D,00000036,     -1884267,
D,00000037,     -1888454,
D,00000038,     -1889985,
D,00000039,     -1887976,
D,00000040,     -1882978,
D,00000041,     -1876493,
D,00000042,     -1870925,
D,00000043,     -1869309,
D,00000044,     -1870316,
D,00000045,     -1873186,
D,00000046,     -1875641,
D,00000047,     -1878515,
D,00000048,     -1878935,
D,00000049,     -1876529,
D,00000050,     -1872535,
D,00000051,     -1868602,
D,00000052,     -1865012,
D,00000053,     -1863558,
D,00000054,     -1865387,
D,00000055,     -1869867,
D,00000056,     -1874053,
D,00000057,     -1877501,
D,00000058,     -1877233,
D,00000059,     -1873582,
D,00000060,     -1867684,
D,00000061,     -1861682,
D,00000062,     -1855569,
D,00000063,     -1852322,
D,00000064,     -1853004,
D,00000065,     -1857407,
D,00000066,     -1862279,
D,00000067,     -1866486,
D,00000068,     -1867616,
D,00000069,     -1865089,
D,00000070,     -1859361,
D,00000071,     -1852852,
D,00000072,     -1848614,
D,00000073,     -1847892,
D,00000074,     -1849726,
D,00000075,     -1853352,
D,00000076,     -1857434,
D,00000077,     -1861044,
D,00000078,     -1861866,
D,00000079,     -1859249,
D,00000080,     -1853401,
D,00000081,     -1847734,
D,00000082,     -1842844,
D,00000083,     -1841005,
D,00000084,     -1842736,
D,00000085,     -1846589,
D,00000086,     -1851630,
D,00000087,     -1856641,
D,00000088,     -1858035,
D,00000089,     -1855491,
D,00000090,     -1851169,
D,00000091,     -1846424,
D,00000092,     -1841929,
D,00000093,     -1842104,
D,00000094,     -1845324,
D,00000095,     -1850160,
D,00000096,     -1854932,
D,00000097,     -1859036,
D,00000098,     -1860166,
D,00000099,     -1858179,
D,00000100,     -1854178,
D,00000101,     -1849657,
D,00000102,     -1845065,
D,00000103,     -1843360,
D,00000104,     -1845078,
D,00000105,     -1849184,
D,00000106,     -1854238,
D,00000107,     -1858769,
D,00000108,     -1860414,
D,00000109,     -1858106,
D,00000110,     -1853617,
D,00000111,     -1848685,
D,00000112,     -1845021,
D,00000113,     -1844249,
D,00000114,     -1846416,
D,00000115,     -1851517,
D,00000116,     -1857063,
D,00000117,     -1861173,
D,00000118,     -1862001,
D,00000119,     -1859537,
D,00000120,     -1856257,
D,00000121,     -1852529,
D,00000122,     -1848351,
D,00000123,     -1847777,
D,00000124,     -1850811,
D,00000125,     -1856397,
D,00000126,     -1862111,
D,00000127,     -1866334,
D,00000128,     -1867111,
D,00000129,     -1864602,
D,00000130,     -1859791,
D,00000131,     -1855563,
D,00000132,     -1851111,
D,00000133,     -1849805,
D,00000134,     -1852702,
D,00000135,     -1858768,
D,00000136,     -1864680,
D,00000137,     -1869547,
D,00000138,     -1871595,
D,00000139,     -1870984,
D,00000140,     -1867579,
D,00000141,     -1863341,
D,00000142,     -1858452,
D,00000143,     -1856369,
D,00000144,     -1858066,
D,00000145,     -1862911,
D,00000146,     -1868216,
D,00000147,     -1873317,
D,00000148,     -1875232,
D,00000149,     -1873919,
D,00000150,     -1869882,
D,00000151,     -1865306,
D,00000152,     -1860556,
D,00000153,     -1859412,
D,00000154,     -1861588,
D,00000155,     -1866296,
D,00000156,     -1871516,
D,00000157,     -1876234,
D,00000158,     -1878099,
D,00000159,     -1876940,
D,00000160,     -1872506,
D,00000161,     -1867502,
D,00000162,     -1862914,
D,00000163,     -1861357,
D,00000164,     -1863047,
D,00000165,     -1867449,
D,00000166,     -1872467,
D,00000167,     -1877056,
D,00000168,     -1878617,
D,00000169,     -1876964,
D,00000170,     -1873150,
D,00000171,     -1868207,
D,00000172,     -1863482,
D,00000173,     -1861928,
D,00000174,     -1863689,
D,00000175,     -1868417,
D,00000176,     -1873439,
D,00000177,     -1878746,
D,00000178,     -1880980,
D,00000179,     -1879334,
D,00000180,     -1875177,
D,00000181,     -1869871,
D,00000182,     -1864604,
D,00000183,     -1862694,
D,00000184,     -1864843,
D,00000185,     -1870028,
D,00000186,     -1875101,
D,00000187,     -1879245,
D,00000188,     -1880857,
D,00000189,     -1879422,
D,00000190,     -1875070,
D,00000191,     -1869985,
D,00000192,     -1865169,
D,00000193,     -1862759,
D,00000194,     -1864005,
D,00000195,     -1868626,
D,00000196,     -1874282,
D,00000197,     -1879344,
D,00000198,     -1881504,
D,00000199,     -1879904,
D,00000200,     -1875343,
D,00000201,     -1869956,
D,00000202,     -1864634,
D,00000203,     -1862724,
D,00000204,     -1864164,
D,00000205,     -1868854,
D,00000206,     -1873960,
D,00000207,     -1878837,
D,00000208,     -1881178,
D,00000209,     -1880089,
D,00000210,     -1875551,
D,00000211,     -1870029,
D,00000212,     -1864687,
D,00000213,     -1862785,
D,00000214,     -1864005,
D,00000215,     -1868066,
D,00000216,     -1873282,
D,00000217,     -1877719,
D,00000218,     -1879092,
D,00000219,     -1877242,
D,00000220,     -1872110,
D,00000221,     -1866071,
D,00000222,     -1861294,
D,00000223,     -1859672,
D,00000224,     -1860896,
D,00000225,     -1865326,
D,00000226,     -1870872,
D,00000227,     -1875852,
D,00000228,     -1877644,
D,00000229,     -1876027,
D,00000230,     -1871570,
D,00000231,     -1866292,
D,00000232,     -1860792,
D,00000233,     -1858428,
D,00000234,     -1859786,
D,00000235,     -1864427,
D,00000236,     -1869630,
D,00000237,     -1874632,
D,00000238,     -1876577,
D,00000239,     -1874991,
D,00000240,     -1870447,
D,00000241,     -1864991,
D,00000242,     -1859816,
D,00000243,     -1857332,
D,00000244,     -1858457,
D,00000245,     -1862812,
D,00000246,     -1867885,
D,00000247,     -1872750,
D,00000248,     -1874739,
D,00000249,     -1873224,
D,00000250,     -1868469,
D,00000251,     -1862972,
D,00000252,     -1857367,
D,00000253,     -1854779,
D,00000254,     -1855925,
D,00000255,     -1860172,
D,00000000,     -1864937,
D,00000001,     -1869557,
D,00000002,     -1871745,
D,00000003,     -1870311,
D,00000004,     -1865622,
D,00000005,     -1860337,
D,00000006,     -1855031,
D,00000007,     -1852196,
D,00000008,     -1852961,
D,00000009,     -1857272,
D,00000010,     -1862449,
D,00000011,     -1867361,
D,00000012,     -1869642,
D,00000013,     -1868550,
D,00000014,     -1864130,
D,00000015,     -1858339,
D,00000016,     -1852787,
D,00000017,     -1850248,
D,00000018,     -1851173,
D,00000019,     -1855687,
D,00000020,     -1861301,
D,00000021,     -1866459,
D,00000022,     -1869029,
D,00000023,     -1868323,
D,00000024,     -1864646,
D,00000025,     -1860111,
D,00000026,     -1855957,
D,00000027,     -1854372,
D,00000028,     -1855563,
D,00000029,     -1860374,
D,00000030,     -1866584,
D,00000031,     -1872256,
D,00000032,     -1875707,
D,00000033,     -1875417,
D,00000034,     -1871067,
D,00000035,     -1865453,
D,00000036,     -1861060,
D,00000037,     -1859280,
D,00000038,     -1860869,
D,00000039,     -1865422,
D,00000040,     -1870828,
D,00000041,     -1876124,
D,00000042,     -1878966,
D,00000043,     -1878404,
D,00000044,     -1874667,
D,00000045,     -1869916,
D,00000046,     -1865087,
D,00000047,     -1862779,
D,00000048,     -1863846,
D,00000049,     -1868191,
D,00000050,     -1873734,
D,00000051,     -1879053,
D,00000052,     -1881751,
D,00000053,     -1880699,
D,00000054,     -1876584,
D,00000055,     -1871436,
D,00000056,     -1866410,
D,00000057,     -1863732,
D,00000058,     -1864201,
D,00000059,     -1868226,
D,00000060,     -1873674,
D,00000061,     -1878603,
D,00000062,     -1881134,
D,00000063,     -1879993,
D,00000064,     -1875170,
D,00000065,     -1868504,
D,00000066,     -1861637,
D,00000067,     -1856406,
D,00000068,     -1854189,
D,00000069,     -1855937,
D,00000070,     -1860057,
D,00000071,     -1864458,
D,00000072,     -1867434,
D,00000073,     -1866861,
D,00000074,     -1862790,
D,00000075,     -1857202,
D,00000076,     -1852506,
D,00000077,     -1850199,
D,00000078,     -1851203,
D,00000079,     -1855665,
D,00000080,     -1862151,
D,00000081,     -1869306,
D,00000082,     -1873602,
D,00000083,     -1874904,
D,00000084,     -1872146,
D,00000085,     -1866822,
D,00000086,     -1861025,
D,00000087,     -1857625,
D,00000088,     -1857911,
D,00000089,     -1861392,
D,00000090,     -1866460,
D,00000091,     -1871816,
D,00000092,     -1874604,
D,00000093,     -1873449,
D,00000094,     -1868961,
D,00000095,     -1863504,
D,00000096,     -1858311,
D,00000097,     -1855662,
D,00000098,     -1856525,
D,00000099,     -1860269,
D,00000100,     -1864688,
D,00000101,     -1869186,
D,00000102,     -1872266,
D,00000103,     -1871805,
D,00000104,     -1868372,
D,00000105,     -1863454,
D,00000106,     -1858434,
D,00000107,     -1855362,
D,00000108,     -1855498,
D,00000109,     -1858951,
D,00000110,     -1864217,
D,00000111,     -1870037,
D,00000112,     -1873567,
D,00000113,     -1873547,
D,00000114,     -1870159,
D,00000115,     -1865422,
D,00000116,     -1860455,
D,00000117,     -1857299,
D,00000118,     -1857638,
D,00000119,     -1861151,
D,00000120,     -1866356,
D,00000121,     -1871747,
D,00000122,     -1875226,
D,00000123,     -1875051,
D,00000124,     -1871684,
D,00000125,     -1867265,
D,00000126,     -1862389,
D,00000127,     -1859334,
D,00000128,     -1859840,
D,00000129,     -1863375,
D,00000130,     -1868498,
D,00000131,     -1873937,
D,00000132,     -1877364,
D,00000133,     -1876981,
D,00000134,     -1873626,
D,00000135,     -1869150,
D,00000136,     -1864046,
D,00000137,     -1860741,
D,00000138,     -1861092,
D,00000139,     -1864607,
D,00000140,     -1869389,
D,00000141,     -1874568,
D,00000142,     -1877821,
D,00000143,     -1877175,
D,00000144,     -1873091,
D,00000145,     -1867561,
D,00000146,     -1862451,
D,00000147,     -1859395,
D,00000148,     -1859332,
D,00000149,     -1862449,
D,00000150,     -1867292,
D,00000151,     -1872163,
D,00000152,     -1875654,
D,00000153,     -1875503,
D,00000154,     -1872066,
D,00000155,     -1867043,
D,00000156,     -1862039,
D,00000157,     -1858306,
D,00000158,     -1858032,
D,00000159,     -1861177,
D,00000160,     -1866131,
D,00000161,     -1871122,
D,00000162,     -1874118,
D,00000163,     -1873459,
D,00000164,     -1870121,
D,00000165,     -1864859,
D,00000166,     -1859596,
D,00000167,     -1855928,
D,00000168,     -1855616,
D,00000169,     -1858649,
D,00000170,     -1863167,
D,00000171,     -1867795,
D,00000172,     -1871039,
D,00000173,     -1870936,
D,00000174,     -1867260,
D,00000175,     -1861837,
D,00000176,     -1856667,
D,00000177,     -1852914,
D,00000178,     -1852647,
D,00000179,     -1855806,
D,00000180,     -1860832,
D,00000181,     -1865668,
D,00000182,     -1868590,
D,00000183,     -1868136,
D,00000184,     -1864202,
D,00000185,     -1858541,
D,00000186,     -1852893,
D,00000187,     -1848979,
D,00000188,     -1848871,
D,00000189,     -1851979,
D,00000190,     -1857019,
D,00000191,     -1862044,
D,00000192,     -1865448,
D,00000193,     -1865259,
D,00000194,     -1861856,
D,00000195,     -1856764,
D,00000196,     -1851656,
D,00000197,     -1848003,
D,00000198,     -1848374,
D,00000199,     -1851806,
D,00000200,     -1856921,
D,00000201,     -1861831,
D,00000202,     -1865249,
D,00000203,     -1865859,
D,00000204,     -1862999,
D,00000205,     -1857806,
D,00000206,     -1852741,
D,00000207,     -1849546,
D,00000208,     -1849797,
D,00000209,     -1853207,
D,00000210,     -1858530,
D,00000211,     -1864438,
D,00000212,     -1868864,
D,00000213,     -1869029,
D,00000214,     -1865964,
D,00000215,     -1861542,
D,00000216,     -1856816,
D,00000217,     -1853322,
D,00000218,     -1853587,
D,00000219,     -1856959,
D,00000220,     -1862321,
D,00000221,     -1867807,
D,00000222,     -1871988,
D,00000223,     -1872646,
D,00000224,     -1869591,
D,00000225,     -1864570,
D,00000226,     -1859598,
D,00000227,     -1855977,
D,00000228,     -1855661,
D,00000229,     -1859001,
D,00000230,     -1863992,
D,00000231,     -1868926,
D,00000232,     -1873026,
D,00000233,     -1873458,
D,00000234,     -1870469,
D,00000235,     -1865541,
D,00000236,     -1860501,
D,00000237,     -1856559,
D,00000238,     -1856051,
D,00000239,     -1859012,
D,00000240,     -1864344,
D,00000241,     -1869543,
D,00000242,     -1873362,
D,00000243,     -1873761,
D,00000244,     -1870612,
D,00000245,     -1865232,
D,00000246,     -1859980,
D,00000247,     -1856286,
D,00000248,     -1855643,
D,00000249,     -1858266,
D,00000250,     -1863271,
D,00000251,     -1868376,
D,00000252,     -1872206,
D,00000253,     -1872211,
D,00000254,     -1869521,
D,00000255,     -1865284,
D,00000000,     -1859894,
D,00000001,     -1855161,
D,00000002,     -1854101,
D,00000003,     -1856856,
D,00000004,     -1861823,
D,00000005,     -1867109,
D,00000006,     -1871213,
D,00000007,     -1871382,
D,00000008,     -1868538,
D,00000009,     -1863549,
D,00000010,     -1858116,
D,00000011,     -1853972,
D,00000012,     -1853547,
D,00000013,     -1856440,
D,00000014,     -1861341,
D,00000015,     -1866526,
D,00000016,     -1870781,
D,00000017,     -1871329,
D,00000018,     -1868254,
D,00000019,     -1863251,
D,00000020,     -1857949,
D,00000021,     -1853659,
D,00000022,     -1853029,
D,00000023,     -1855881,
D,00000024,     -1860758,
D,00000025,     -1866000,
D,00000026,     -1869972,
D,00000027,     -1870335,
D,00000028,     -1867581,
D,00000029,     -1862544,
D,00000030,     -1857508,
D,00000031,     -1852969,
D,00000032,     -1852272,
D,00000033,     -1855252,
D,00000034,     -1860261,
D,00000035,     -1865381,
D,00000036,     -1870303,
D,00000037,     -1871339,
D,00000038,     -1868889,
D,00000039,     -1863774,
D,00000040,     -1859026,
D,00000041,     -1855079,
D,00000042,     -1854287,
D,00000043,     -1856356,
D,00000044,     -1861071,
D,00000045,     -1866541,
D,00000046,     -1871137,
D,00000047,     -1872175,
D,00000048,     -1869901,
D,00000049,     -1865006,
D,00000050,     -1860379,
D,00000051,     -1856461,
D,00000052,     -1855370,
D,00000053,     -1857754,
D,00000054,     -1863239,
D,00000055,     -1869309,
D,00000056,     -1873652,
D,00000057,     -1874689,
D,00000058,     -1872629,
D,00000059,     -1867955,
D,00000060,     -1862903,
D,00000061,     -1858394,
D,00000062,     -1856461,
D,00000063,     -1858404,
D,00000064,     -1863137,
D,00000065,     -1867858,
D,00000066,     -1871816,
D,00000067,     -1872623,
D,00000068,     -1870454,
D,00000069,     -1865629,
D,00000070,     -1860232,
D,00000071,     -1856195,
D,00000072,     -1855039,
D,00000073,     -1857004,
D,00000074,     -1861882,
D,00000075,     -1867354,
D,00000076,     -1871576,
D,00000077,     -1872319,
D,00000078,     -1869792,
D,00000079,     -1864609,
D,00000080,     -1859109,
D,00000081,     -1855032,
D,00000082,     -1854251,
D,00000083,     -1856262,
D,00000084,     -1860881,
D,00000085,     -1866373,
D,00000086,     -1870269,
D,00000087,     -1871059,
D,00000088,     -1868758,
D,00000089,     -1863644,
D,00000090,     -1858362,
D,00000091,     -1854337,
D,00000092,     -1853769,
D,00000093,     -1856029,
D,00000094,     -1860423,
D,00000095,     -1865394,
D,00000096,     -1870071,
D,00000097,     -1871230,
D,00000098,     -1869136,
D,00000099,     -1864237,
D,00000100,     -1859007,
D,00000101,     -1854291,
D,00000102,     -1852735,
D,00000103,     -1854821,
D,00000104,     -1860099,
D,00000105,     -1865188,
D,00000106,     -1869826,
D,00000107,     -1870505,
D,00000108,     -1868069,
D,00000109,     -1863107,
D,00000110,     -1858166,
D,00000111,     -1853722,
D,00000112,     -1852203,
D,00000113,     -1854612,
D,00000114,     -1859708,
D,00000115,     -1864546,
D,00000116,     -1868646,
D,00000117,     -1869934,
D,00000118,     -1868175,
D,00000119,     -1863664,
D,00000120,     -1858111,
D,00000121,     -1853585,
D,00000122,     -1851984,
D,00000123,     -1853904,
D,00000124,     -1858901,
D,00000125,     -1863797,
D,00000126,     -1868551,
D,00000127,     -1870267,
D,00000128,     -1868339,
D,00000129,     -1863460,
D,00000130,     -1858475,
D,00000131,     -1854112,
D,00000132,     -1852874,
D,00000133,     -1855181,
D,00000134,     -1860337,
D,00000135,     -1866149,
D,00000136,     -1871281,
D,00000137,     -1872759,
D,00000138,     -1870608,
D,00000139,     -1865745,
D,00000140,     -1860673,
D,00000141,     -1855702,
D,00000142,     -1853781,
D,00000143,     -1855360,
D,00000144,     -1860029,
D,00000145,     -1865442,
D,00000146,     -1870563,
D,00000147,     -1872007,
D,00000148,     -1870226,
D,00000149,     -1865698,
D,00000150,     -1860647,
D,00000151,     -1856467,
D,00000152,     -1855457,
D,00000153,     -1857661,
D,00000154,     -1862153,
D,00000155,     -1867392,
D,00000156,     -1872087,
D,00000157,     -1872967,
D,00000158,     -1870928,
D,00000159,     -1866384,
D,00000160,     -1861443,
D,00000161,     -1856748,
D,00000162,     -1854903,
D,00000163,     -1856651,
D,00000164,     -1861181,
D,00000165,     -1866407,
D,00000166,     -1871051,
D,00000167,     -1872318,
D,00000168,     -1870306,
D,00000169,     -1865923,
D,00000170,     -1860657,
D,00000171,     -1854996,
D,00000172,     -1851938,
D,00000173,     -1851584,
D,00000174,     -1854064,
D,00000175,     -1857748,
D,00000176,     -1862161,
D,00000177,     -1863741,
D,00000178,     -1862276,
D,00000179,     -1858116,
D,00000180,     -1853329,
D,00000181,     -1848160,
D,00000182,     -1847136,
D,00000183,     -1849850,
D,00000184,     -1855227,
D,00000185,     -1861519,
D,00000186,     -1868254,
D,00000187,     -1871797,
D,00000188,     -1871042,
D,00000189,     -1868261,
D,00000190,     -1864328,
D,00000191,     -1859766,
D,00000192,     -1857220,
D,00000193,     -1858263,
D,00000194,     -1863031,
D,00000195,     -1867868,
D,00000196,     -1872369,
D,00000197,     -1874121,
D,00000198,     -1872220,
D,00000199,     -1867367,
D,00000200,     -1862241,
D,00000201,     -1857036,
D,00000202,     -1854923,
D,00000203,     -1856457,
D,00000204,     -1861119,
D,00000205,     -1866269,
D,00000206,     -1870931,
D,00000207,     -1872693,
D,00000208,     -1870942,
D,00000209,     -1866359,
D,00000210,     -1861389,
D,00000211,     -1856534,
D,00000212,     -1854422,
D,00000213,     -1855721,
D,00000214,     -1860439,
D,00000215,     -1865933,
D,00000216,     -1870659,
D,00000217,     -1872635,
D,00000218,     -1870717,
D,00000219,     -1865918,
D,00000220,     -1860649,
D,00000221,     -1855411,
D,00000222,     -1853581,
D,00000223,     -1854906,
D,00000224,     -1859156,
D,00000225,     -1864183,
D,00000226,     -1868724,
D,00000227,     -1870951,
D,00000228,     -1869807,
D,00000229,     -1865342,
D,00000230,     -1860327,
D,00000231,     -1855467,
D,00000232,     -1853494,
D,00000233,     -1855030,
D,00000234,     -1859542,
D,00000235,     -1864287,
D,00000236,     -1869161,
D,00000237,     -1871327,
D,00000238,     -1869848,
D,00000239,     -1865591,
D,00000240,     -1860917,
D,00000241,     -1855939,
D,00000242,     -1853843,
D,00000243,     -1855114,
D,00000244,     -1859197,
D,00000245,     -1864298,
D,00000246,     -1869197,
D,00000247,     -1871209,
D,00000248,     -1869657,
D,00000249,     -1865369,
D,00000250,     -1860433,
D,00000251,     -1854944,
D,00000252,     -1852605,
D,00000253,     -1853805,
D,00000254,     -1858154,
D,00000255,     -1863336,
D,00000000,     -1868220,
D,00000001,     -1870630,
D,00000002,     -1869329,
D,00000003,     -1865100,
D,00000004,     -1859583,
D,00000005,     -1854284,
D,00000006,     -1851892,
D,00000007,     -1852914,
D,00000008,     -1857207,
D,00000009,     -1862079,
D,00000010,     -1866796,
D,00000011,     -1869035,
D,00000012,     -1867791,
D,00000013,     -1863455,
D,00000014,     -1858353,
D,00000015,     -1853422,
D,00000016,     -1851163,
D,00000017,     -1852131,
D,00000018,     -1856165,
D,00000019,     -1860972,
D,00000020,     -1865536,
D,00000021,     -1867390,
D,00000022,     -1866232,
D,00000023,     -1862012,
D,00000024,     -1856697,
D,00000025,     -1851689,
D,00000026,     -1849202,
D,00000027,     -1849909,
D,00000028,     -1853722,
D,00000029,     -1858594,
D,00000030,     -1863509,
D,00000031,     -1865519,
D,00000032,     -1864265,
D,00000033,     -1859740,
D,00000034,     -1854508,
D,00000035,     -1849768,
D,00000036,     -1847109,
D,00000037,     -1847882,
D,00000038,     -1851793,
D,00000039,     -1856857,
D,00000040,     -1861669,
D,00000041,     -1864111,
D,00000042,     -1863021,
D,00000043,     -1858969,
D,00000044,     -1853759,
D,00000045,     -1848676,
D,00000046,     -1846026,
D,00000047,     -1847150,
D,00000048,     -1851384,
D,00000049,     -1856804,
D,00000050,     -1862152,
D,00000051,     -1864820,
D,00000052,     -1864089,
D,00000053,     -1860258,
D,00000054,     -1855200,
D,00000055,     -1849946,
D,00000056,     -1847492,
D,00000057,     -1848622,
D,00000058,     -1852822,
D,00000059,     -1858592,
D,00000060,     -1864235,
D,00000061,     -1867536,
D,00000062,     -1867006,
D,00000063,     -1862999,
D,00000064,     -1857982,
D,00000065,     -1853164,
D,00000066,     -1850886,
D,00000067,     -1852169,
D,00000068,     -1856409,
D,00000069,     -1861792,
D,00000070,     -1867228,
D,00000071,     -1870170,
D,00000072,     -1869495,
D,00000073,     -1865907,
D,00000074,     -1861192,
D,00000075,     -1856212,
D,00000076,     -1853485,
D,00000077,     -1854522,
D,00000078,     -1858779,
D,00000079,     -1864013,
D,00000080,     -1868957,
D,00000081,     -1871740,
D,00000082,     -1871200,
D,00000083,     -1867480,
D,00000084,     -1862635,
D,00000085,     -1857611,
D,00000086,     -1854722,
D,00000087,     -1855524,
D,00000088,     -1859286,
D,00000089,     -1864194,
D,00000090,     -1869288,
D,00000091,     -1872385,
D,00000092,     -1871875,
D,00000093,     -1868091,
D,00000094,     -1863124,
D,00000095,     -1857908,
D,00000096,     -1854357,
D,00000097,     -1854621,
D,00000098,     -1859086,
D,00000099,     -1865049,
D,00000100,     -1870020,
D,00000101,     -1872486,
D,00000102,     -1871852,
D,00000103,     -1868080,
D,00000104,     -1862939,
D,00000105,     -1857655,
D,00000106,     -1854707,
D,00000107,     -1855201,
D,00000108,     -1858915,
D,00000109,     -1863993,
D,00000110,     -1869368,
D,00000111,     -1872416,
D,00000112,     -1871680,
D,00000113,     -1867746,
D,00000114,     -1862397,
D,00000115,     -1857010,
D,00000116,     -1853964,
D,00000117,     -1854364,
D,00000118,     -1858247,
D,00000119,     -1863526,
D,00000120,     -1868792,
D,00000121,     -1871653,
D,00000122,     -1871046,
D,00000123,     -1867424,
D,00000124,     -1862577,
D,00000125,     -1857239,
D,00000126,     -1853666,
D,00000127,     -1853956,
D,00000128,     -1857556,
D,00000129,     -1862886,
D,00000130,     -1867944,
D,00000131,     -1871169,
D,00000132,     -1870716,
D,00000133,     -1867037,
D,00000134,     -1862022,
D,00000135,     -1856860,
D,00000136,     -1853699,
D,00000137,     -1854119,
D,00000138,     -1857859,
D,00000139,     -1862796,
D,00000140,     -1867916,
D,00000141,     -1871067,
D,00000142,     -1870444,
D,00000143,     -1866950,
D,00000144,     -1862034,
D,00000145,     -1856774,
D,00000146,     -1853837,
D,00000147,     -1854204,
D,00000148,     -1857722,
D,00000149,     -1862529,
D,00000150,     -1867634,
D,00000151,     -1871164,
D,00000152,     -1870833,
D,00000153,     -1867264,
D,00000154,     -1862221,
D,00000155,     -1856716,
D,00000156,     -1853045,
D,00000157,     -1853374,
D,00000158,     -1857387,
D,00000159,     -1862649,
D,00000160,     -1867564,
D,00000161,     -1870782,
D,00000162,     -1870409,
D,00000163,     -1866934,
D,00000164,     -1861910,
D,00000165,     -1856944,
D,00000166,     -1853477,
D,00000167,     -1853479,
D,00000168,     -1856868,
D,00000169,     -1862081,
D,00000170,     -1867228,
D,00000171,     -1870665,
D,00000172,     -1870599,
D,00000173,     -1867360,
D,00000174,     -1862359,
D,00000175,     -1856894,
D,00000176,     -1853496,
D,00000177,     -1853746,
D,00000178,     -1857251,
D,00000179,     -1862389,
D,00000180,     -1867514,
D,00000181,     -1870879,
D,00000182,     -1870755,
D,00000183,     -1867531,
D,00000184,     -1862463,
D,00000185,     -1857637,
D,00000186,     -1854411,
D,00000187,     -1854556,
D,00000188,     -1857861,
D,00000189,     -1862774,
D,00000190,     -1867564,
D,00000191,     -1870885,
D,00000192,     -1871142,
D,00000193,     -1867908,
D,00000194,     -1862557,
D,00000195,     -1857147,
D,00000196,     -1853894,
D,00000197,     -1854254,
D,00000198,     -1857350,
D,00000199,     -1862311,
D,00000200,     -1867526,
D,00000201,     -1870957,
D,00000202,     -1870822,
D,00000203,     -1867489,
D,00000204,     -1862387,
D,00000205,     -1856816,
D,00000206,     -1852731,
D,00000207,     -1852816,
D,00000208,     -1856151,
D,00000209,     -1861314,
D,00000210,     -1866357,
D,00000211,     -1870151,
D,00000212,     -1870056,
D,00000213,     -1866766,
D,00000214,     -1861497,
D,00000215,     -1856170,
D,00000216,     -1852439,
D,00000217,     -1852421,
D,00000218,     -1855700,
D,00000219,     -1860767,
D,00000220,     -1866044,
D,00000221,     -1869782,
D,00000222,     -1869709,
D,00000223,     -1866264,
D,00000224,     -1861391,
D,00000225,     -1856356,
D,00000226,     -1852501,
D,00000227,     -1852351,
D,00000228,     -1855710,
D,00000229,     -1861257,
D,00000230,     -1866850,
D,00000231,     -1870374,
D,00000232,     -1870489,
D,00000233,     -1867261,
D,00000234,     -1862353,
D,00000235,     -1857668,
D,00000236,     -1854270,
D,00000237,     -1854136,
D,00000238,     -1857363,
D,00000239,     -1862542,
D,00000240,     -1867417,
D,00000241,     -1871301,
D,00000242,     -1871781,
D,00000243,     -1868719,
D,00000244,     -1863572,
D,00000245,     -1858558,
D,00000246,     -1854704,
D,00000247,     -1854183,
D,00000248,     -1857372,
D,00000249,     -1862724,
D,00000250,     -1867741,
D,00000251,     -1871461,
D,00000252,     -1871681,
D,00000253,     -1868639,
D,00000254,     -1863677,
D,00000255,     -1858438,
D,00000000,     -1854577,
D,00000001,     -1854506,
D,00000002,     -1857144,
D,00000003,     -1862412,
D,00000004,     -1867763,
D,00000005,     -1871471,
D,00000006,     -1871518,
D,00000007,     -1868426,
D,00000008,     -1863656,
D,00000009,     -1858487,
D,00000010,     -1854615,
D,00000011,     -1854352,
D,00000012,     -1857059,
D,00000013,     -1862024,
D,00000014,     -1866664,
D,00000015,     -1869752,
D,00000016,     -1868819,
D,00000017,     -1864151,
D,00000018,     -1856927,
D,00000019,     -1849240,
D,00000020,     -1844222,
D,00000021,     -1843497,
D,00000022,     -1846275,
D,00000023,     -1851936,
D,00000024,     -1857434,
D,00000025,     -1861446,
D,00000026,     -1862085,
D,00000027,     -1860128,
D,00000028,     -1856154,
D,00000029,     -1851753,
D,00000030,     -1848896,
D,00000031,     -1850707,
D,00000032,     -1855332,
D,00000033,     -1861996,
D,00000034,     -1868790,
D,00000035,     -1873478,
D,00000036,     -1873573,
D,00000037,     -1870239,
D,00000038,     -1865282,
D,00000039,     -1860220,
D,00000040,     -1856021,
D,00000041,     -1855746,
D,00000042,     -1858559,
D,00000043,     -1863099,
D,00000044,     -1867933,
D,00000045,     -1871690,
D,00000046,     -1871974,
D,00000047,     -1869214,
D,00000048,     -1864162,
D,00000049,     -1859192,
D,00000050,     -1855271,
D,00000051,     -1855050,
D,00000052,     -1857967,
D,00000053,     -1862579,
D,00000054,     -1867098,
D,00000055,     -1870906,
D,00000056,     -1871840,
D,00000057,     -1868971,
D,00000058,     -1864082,
D,00000059,     -1859395,
D,00000060,     -1855302,
D,00000061,     -1854293,
D,00000062,     -1856761,
D,00000063,     -1861468,
D,00000064,     -1866119,
D,00000065,     -1870426,
D,00000066,     -1871268,
D,00000067,     -1868641,
D,00000068,     -1863974,
D,00000069,     -1858995,
D,00000070,     -1854629,
D,00000071,     -1853843,
D,00000072,     -1856402,
D,00000073,     -1861309,
D,00000074,     -1866517,
D,00000075,     -1870642,
D,00000076,     -1871396,
D,00000077,     -1868796,
D,00000078,     -1863920,
D,00000079,     -1858929,
D,00000080,     -1854574,
D,00000081,     -1853830,
D,00000082,     -1856456,
D,00000083,     -1861366,
D,00000084,     -1866452,
D,00000085,     -1870701,
D,00000086,     -1871667,
D,00000087,     -1869331,
D,00000088,     -1864236,
D,00000089,     -1858939,
D,00000090,     -1854697,
D,00000091,     -1853941,
D,00000092,     -1856283,
D,00000093,     -1860996,
D,00000094,     -1866109,
D,00000095,     -1870570,
D,00000096,     -1871403,
D,00000097,     -1868801,
D,00000098,     -1863754,
D,00000099,     -1858554,
D,00000100,     -1853978,
D,00000101,     -1852812,
D,00000102,     -1855255,
D,00000103,     -1860212,
D,00000104,     -1865116,
D,00000105,     -1869451,
D,00000106,     -1870458,
D,00000107,     -1868232,
D,00000108,     -1863172,
D,00000109,     -1858076,
D,00000110,     -1853430,
D,00000111,     -1852161,
D,00000112,     -1854865,
D,00000113,     -1859390,
D,00000114,     -1864087,
D,00000115,     -1867966,
D,00000116,     -1869115,
D,00000117,     -1866833,
D,00000118,     -1861890,
D,00000119,     -1856628,
D,00000120,     -1851777,
D,00000121,     -1850399,
D,00000122,     -1852759,
D,00000123,     -1857553,
D,00000124,     -1862446,
D,00000125,     -1866471,
D,00000126,     -1867076,
D,00000127,     -1864712,
D,00000128,     -1859552,
D,00000129,     -1854502,
D,00000130,     -1850029,
D,00000131,     -1848352,
D,00000132,     -1850039,
D,00000133,     -1854724,
D,00000134,     -1859908,
D,00000135,     -1863981,
D,00000136,     -1864867,
D,00000137,     -1862851,
D,00000138,     -1857576,
D,00000139,     -1852386,
D,00000140,     -1848067,
D,00000141,     -1846788,
D,00000142,     -1848764,
D,00000143,     -1853337,
D,00000144,     -1858082,
D,00000145,     -1862295,
D,00000146,     -1863626,
D,00000147,     -1861919,
D,00000148,     -1857239,
D,00000149,     -1851891,
D,00000150,     -1847259,
D,00000151,     -1846133,
D,00000152,     -1848326,
D,00000153,     -1853301,
D,00000154,     -1858628,
D,00000155,     -1863276,
D,00000156,     -1864814,
D,00000157,     -1863010,
D,00000158,     -1858569,
D,00000159,     -1853692,
D,00000160,     -1849278,
D,00000161,     -1848147,
D,00000162,     -1850422,
D,00000163,     -1855487,
D,00000164,     -1861102,
D,00000165,     -1866041,
D,00000166,     -1867624,
D,00000167,     -1865976,
D,00000168,     -1861547,
D,00000169,     -1856916,
D,00000170,     -1852614,
D,00000171,     -1851463,
D,00000172,     -1853524,
D,00000173,     -1858447,
D,00000174,     -1863927,
D,00000175,     -1868786,
D,00000176,     -1870156,
D,00000177,     -1868316,
D,00000178,     -1863800,
D,00000179,     -1858815,
D,00000180,     -1854109,
D,00000181,     -1852737,
D,00000182,     -1854826,
D,00000183,     -1859370,
D,00000184,     -1864402,
D,00000185,     -1869192,
D,00000186,     -1871001,
D,00000187,     -1869585,
D,00000188,     -1864949,
D,00000189,     -1859851,
D,00000190,     -1855041,
D,00000191,     -1853185,
D,00000192,     -1855062,
D,00000193,     -1860066,
D,00000194,     -1865238,
D,00000195,     -1870097,
D,00000196,     -1871972,
D,00000197,     -1869721,
D,00000198,     -1864863,
D,00000199,     -1859766,
D,00000200,     -1855112,
D,00000201,     -1853489,
D,00000202,     -1855407,
D,00000203,     -1860014,
D,00000204,     -1865324,
D,00000205,     -1870106,
D,00000206,     -1871706,
D,00000207,     -1869956,
D,00000208,     -1865379,
D,00000209,     -1860265,
D,00000210,     -1855378,
D,00000211,     -1853594,
D,00000212,     -1855131,
D,00000213,     -1859766,
D,00000214,     -1864996,
D,00000215,     -1869813,
D,00000216,     -1871736,
D,00000217,     -1870120,
D,00000218,     -1865424,
D,00000219,     -1860246,
D,00000220,     -1855560,
D,00000221,     -1853883,
D,00000222,     -1855632,
D,00000223,     -1860137,
D,00000224,     -1865394,
D,00000225,     -1870230,
D,00000226,     -1871909,
D,00000227,     -1870170,
D,00000228,     -1865684,
D,00000229,     -1860496,
D,00000230,     -1855724,
D,00000231,     -1854029,
D,00000232,     -1855546,
D,00000233,     -1860063,
D,00000234,     -1865332,
D,00000235,     -1870351,
D,00000236,     -1872326,
D,00000237,     -1870674,
D,00000238,     -1865976,
D,00000239,     -1860814,
D,00000240,     -1855796,
D,00000241,     -1854018,
D,00000242,     -1855501,
D,00000243,     -1859864,
D,00000244,     -1865341,
D,00000245,     -1870346,
D,00000246,     -1871949,
D,00000247,     -1870572,
D,00000248,     -1865952,
D,00000249,     -1860921,
D,00000250,     -1855921,
D,00000251,     -1853726,
D,00000252,     -1855298,
D,00000253,     -1859772,
D,00000254,     -1865067,
D,00000255,     -1870151,
D,00000000,     -1871961,
D,00000001,     -1870361,
D,00000002,     -1865673,
D,00000003,     -1860552,
D,00000004,     -1855661,
D,00000005,     -1853784,
D,00000006,     -1855222,
D,00000007,     -1859764,
D,00000008,     -1864834,
D,00000009,     -1869856,
D,00000010,     -1872061,
D,00000011,     -1870433,
D,00000012,     -1866016,
D,00000013,     -1860948,
D,00000014,     -1856245,
D,00000015,     -1853909,
D,00000016,     -1855264,
D,00000017,     -1859678,
D,00000018,     -1864871,
D,00000019,     -1869881,
D,00000020,     -1872216,
D,00000021,     -1870836,
D,00000022,     -1866541,
D,00000023,     -1861572,
D,00000024,     -1856517,
D,00000025,     -1854160,
D,00000026,     -1855287,
D,00000027,     -1860045,
D,00000028,     -1865247,
D,00000029,     -1869983,
D,00000030,     -1872190,
D,00000031,     -1871157,
D,00000032,     -1866992,
D,00000033,     -1861803,
D,00000034,     -1856617,
D,00000035,     -1854093,
D,00000036,     -1855176,
D,00000037,     -1859689,
D,00000038,     -1865092,
D,00000039,     -1869899,
D,00000040,     -1871993,
D,00000041,     -1870899,
D,00000042,     -1866577,
D,00000043,     -1861618,
D,00000044,     -1856579,
D,00000045,     -1854032,
D,00000046,     -1855347,
D,00000047,     -1859684,
D,00000048,     -1864731,
D,00000049,     -1869317,
D,00000050,     -1871656,
D,00000051,     -1870660,
D,00000052,     -1866486,
D,00000053,     -1861239,
D,00000054,     -1856519,
D,00000055,     -1854149,
D,00000056,     -1855114,
D,00000057,     -1859266,
D,00000058,     -1864572,
D,00000059,     -1869615,
D,00000060,     -1871867,
D,00000061,     -1871057,
D,00000062,     -1866867,
D,00000063,     -1861813,
D,00000064,     -1856858,
D,00000065,     -1854536,
D,00000066,     -1855596,
D,00000067,     -1859516,
D,00000068,     -1864454,
D,00000069,     -1869494,
D,00000070,     -1872128,
D,00000071,     -1871183,
D,00000072,     -1867135,
D,00000073,     -1862043,
D,00000074,     -1857234,
D,00000075,     -1854728,
D,00000076,     -1855604,
D,00000077,     -1859481,
D,00000078,     -1864148,
D,00000079,     -1868954,
D,00000080,     -1871599,
D,00000081,     -1870757,
D,00000082,     -1866461,
D,00000083,     -1861279,
D,00000084,     -1856069,
D,00000085,     -1853032,
D,00000086,     -1853709,
D,00000087,     -1857681,
D,00000088,     -1862877,
D,00000089,     -1868034,
D,00000090,     -1871026,
D,00000091,     -1869904,
D,00000092,     -1865508,
D,00000093,     -1860372,
D,00000094,     -1855473,
D,00000095,     -1852904,
D,00000096,     -1853626,
D,00000097,     -1857749,
D,00000098,     -1862809,
D,00000099,     -1867537,
D,00000100,     -1869952,
D,00000101,     -1869092,
D,00000102,     -1864943,
D,00000103,     -1859804,
D,00000104,     -1855067,
D,00000105,     -1852241,
D,00000106,     -1852892,
D,00000107,     -1856801,
D,00000108,     -1861882,
D,00000109,     -1867361,
D,00000110,     -1870568,
D,00000111,     -1870184,
D,00000112,     -1866586,
D,00000113,     -1861956,
D,00000114,     -1857281,
D,00000115,     -1854682,
D,00000116,     -1855233,
D,00000117,     -1858966,
D,00000118,     -1864372,
D,00000119,     -1869572,
D,00000120,     -1872277,
D,00000121,     -1871772,
D,00000122,     -1868108,
D,00000123,     -1862813,
D,00000124,     -1857512,
D,00000125,     -1854307,
D,00000126,     -1854977,
D,00000127,     -1859008,
D,00000128,     -1864369,
D,00000129,     -1869746,
D,00000130,     -1872563,
D,00000131,     -1871798,
D,00000132,     -1868081,
D,00000133,     -1862996,
D,00000134,     -1857829,
D,00000135,     -1854767,
D,00000136,     -1855410,
D,00000137,     -1859077,
D,00000138,     -1864353,
D,00000139,     -1869715,
D,00000140,     -1872659,
D,00000141,     -1872003,
D,00000142,     -1867991,
D,00000143,     -1862923,
D,00000144,     -1858219,
D,00000145,     -1855166,
D,00000146,     -1855142,
D,00000147,     -1858774,
D,00000148,     -1863714,
D,00000149,     -1868072,
D,00000150,     -1869990,
D,00000151,     -1867496,
D,00000152,     -1861114,
D,00000153,     -1853782,
D,00000154,     -1847436,
D,00000155,     -1843876,
D,00000156,     -1844259,
D,00000157,     -1848881,
D,00000158,     -1854454,
D,00000159,     -1859735,
D,00000160,     -1862896,
D,00000161,     -1862671,
D,00000162,     -1859714,
D,00000163,     -1855689,
D,00000164,     -1851660,
D,00000165,     -1850679,
D,00000166,     -1852632,
D,00000167,     -1858209,
D,00000168,     -1865396,
D,00000169,     -1871497,
D,00000170,     -1874533,
D,00000171,     -1873752,
D,00000172,     -1869880,
D,00000173,     -1864869,
D,00000174,     -1859586,
D,00000175,     -1856416,
D,00000176,     -1856882,
D,00000177,     -1860153,
D,00000178,     -1865004,
D,00000179,     -1869687,
D,00000180,     -1872598,
D,00000181,     -1872157,
D,00000182,     -1868886,
D,00000183,     -1864133,
D,00000184,     -1859079,
D,00000185,     -1855437,
D,00000186,     -1855347,
D,00000187,     -1858785,
D,00000188,     -1863941,
D,00000189,     -1869197,
D,00000190,     -1872747,
D,00000191,     -1872409,
D,00000192,     -1868652,
D,00000193,     -1863467,
D,00000194,     -1858433,
D,00000195,     -1855008,
D,00000196,     -1855153,
D,00000197,     -1858601,
D,00000198,     -1863669,
D,00000199,     -1868882,
D,00000200,     -1872206,
D,00000201,     -1872049,
D,00000202,     -1868507,
D,00000203,     -1863309,
D,00000204,     -1858171,
D,00000205,     -1854434,
D,00000206,     -1854760,
D,00000207,     -1858157,
D,00000208,     -1863403,
D,00000209,     -1868521,
D,00000210,     -1871709,
D,00000211,     -1871516,
D,00000212,     -1868495,
D,00000213,     -1863472,
D,00000214,     -1858266,
D,00000215,     -1854931,
D,00000216,     -1854609,
D,00000217,     -1858022,
D,00000218,     -1863316,
D,00000219,     -1868797,
D,00000220,     -1872314,
D,00000221,     -1872044,
D,00000222,     -1868650,
D,00000223,     -1863719,
D,00000224,     -1858631,
D,00000225,     -1854658,
D,00000226,     -1854419,
D,00000227,     -1857562,
D,00000228,     -1862579,
D,00000229,     -1867900,
D,00000230,     -1871320,
D,00000231,     -1871207,
D,00000232,     -1867956,
D,00000233,     -1862761,
D,00000234,     -1857559,
D,00000235,     -1853782,
D,00000236,     -1853674,
D,00000237,     -1857097,
D,00000238,     -1861968,
D,00000239,     -1866940,
D,00000240,     -1870744,
D,00000241,     -1870617,
D,00000242,     -1867192,
D,00000243,     -1861887,
D,00000244,     -1856656,
D,00000245,     -1852940,
D,00000246,     -1853022,
D,00000247,     -1856159,
D,00000248,     -1860899,
D,00000249,     -1865647,
D,00000250,     -1869176,
D,00000251,     -1869177,
D,00000252,     -1866104,
D,00000253,     -1860803,
D,00000254,     -1855424,
D,00000255,     -1851266,
D,00000000,     -1851104,
D,00000001,     -1854007,
D,00000002,     -1858700,
D,00000003,     -1863781,
D,00000004,     -1867592,
D,00000005,     -1867552,
D,00000006,     -1864049,
D,00000007,     -1858591,
D,00000008,     -1853295,
D,00000009,     -1849419,
D,00000010,     -1848624,
D,00000011,     -1851381,
D,00000012,     -1856376,
D,00000013,     -1861219,
D,00000014,     -1864665,
D,00000015,     -1864763,
D,00000016,     -1862021,
D,00000017,     -1857219,
D,00000018,     -1851939,
D,00000019,     -1847662,
D,00000020,     -1846764,
D,00000021,     -1849529,
D,00000022,     -1854738,
D,00000023,     -1860075,
D,00000024,     -1864106,
D,00000025,     -1864304,
D,00000026,     -1861134,
D,00000027,     -1856197,
D,00000028,     -1850904,
D,00000029,     -1847021,
D,00000030,     -1846897,
D,00000031,     -1849886,
D,00000032,     -1854940,
D,00000033,     -1860206,
D,00000034,     -1864224,
D,00000035,     -1864815,
D,00000036,     -1862327,
D,00000037,     -1857629,
D,00000038,     -1852786,
D,00000039,     -1848919,
D,00000040,     -1848737,
D,00000041,     -1852029,
D,00000042,     -1857272,
D,00000043,     -1862743,
D,00000044,     -1867139,
D,00000045,     -1867985,
D,00000046,     -1865279,
D,00000047,     -1860655,
D,00000048,     -1855934,
D,00000049,     -1852128,
D,00000050,     -1852054,
D,00000051,     -1855040,
D,00000052,     -1860240,
D,00000053,     -1865219,
D,00000054,     -1869299,
D,00000055,     -1870054,
D,00000056,     -1867451,
D,00000057,     -1862604,
D,00000058,     -1857499,
D,00000059,     -1853371,
D,00000060,     -1853267,
D,00000061,     -1856547,
D,00000062,     -1861615,
D,00000063,     -1866791,
D,00000064,     -1870894,
D,00000065,     -1871506,
D,00000066,     -1868864,
D,00000067,     -1863864,
D,00000068,     -1858757,
D,00000069,     -1854699,
D,00000070,     -1854050,
D,00000071,     -1856746,
D,00000072,     -1861809,
D,00000073,     -1867164,
D,00000074,     -1871454,
D,00000075,     -1871999,
D,00000076,     -1869221,
D,00000077,     -1863963,
D,00000078,     -1858954,
D,00000079,     -1854814,
D,00000080,     -1854357,
D,00000081,     -1857002,
D,00000082,     -1861974,
D,00000083,     -1867230,
D,00000084,     -1871372,
D,00000085,     -1872004,
D,00000086,     -1869391,
D,00000087,     -1864261,
D,00000088,     -1859196,
D,00000089,     -1855414,
D,00000090,     -1854692,
D,00000091,     -1857216,
D,00000092,     -1862239,
D,00000093,     -1867247,
D,00000094,     -1871357,
D,00000095,     -1871909,
D,00000096,     -1869421,
D,00000097,     -1864362,
D,00000098,     -1859191,
D,00000099,     -1854761,
D,00000100,     -1853954,
D,00000101,     -1856674,
D,00000102,     -1861940,
D,00000103,     -1867169,
D,00000104,     -1871327,
D,00000105,     -1871867,
D,00000106,     -1869177,
D,00000107,     -1864242,
D,00000108,     -1859334,
D,00000109,     -1855145,
D,00000110,     -1854471,
D,00000111,     -1856996,
D,00000112,     -1861641,
D,00000113,     -1866733,
D,00000114,     -1871137,
D,00000115,     -1872022,
D,00000116,     -1869466,
D,00000117,     -1864568,
D,00000118,     -1859803,
D,00000119,     -1855502,
D,00000120,     -1854541,
D,00000121,     -1856722,
D,00000122,     -1861791,
D,00000123,     -1866920,
D,00000124,     -1871163,
D,00000125,     -1871971,
D,00000126,     -1869466,
D,00000127,     -1864370,
D,00000128,     -1859378,
D,00000129,     -1854882,
D,00000130,     -1853605,
D,00000131,     -1856064,
D,00000132,     -1861022,
D,00000133,     -1866071,
D,00000134,     -1870549,
D,00000135,     -1871651,
D,00000136,     -1869196,
D,00000137,     -1864369,
D,00000138,     -1859366,
D,00000139,     -1854751,
D,00000140,     -1853414,
D,00000141,     -1855761,
D,00000142,     -1860469,
D,00000143,     -1865859,
D,00000144,     -1870405,
D,00000145,     -1871160,
D,00000146,     -1868892,
D,00000147,     -1864211,
D,00000148,     -1859288,
D,00000149,     -1855001,
D,00000150,     -1854036,
D,00000151,     -1856146,
D,00000152,     -1861281,
D,00000153,     -1866215,
D,00000154,     -1870465,
D,00000155,     -1871830,
D,00000156,     -1869592,
D,00000157,     -1864736,
D,00000158,     -1859462,
D,00000159,     -1854661,
D,00000160,     -1853522,
D,00000161,     -1855949,
D,00000162,     -1860999,
D,00000163,     -1866132,
D,00000164,     -1870505,
D,00000165,     -1871812,
D,00000166,     -1869569,
D,00000167,     -1864651,
D,00000168,     -1859572,
D,00000169,     -1855282,
D,00000170,     -1854081,
D,00000171,     -1855986,
D,00000172,     -1861086,
D,00000173,     -1866332,
D,00000174,     -1870644,
D,00000175,     -1871787,
D,00000176,     -1869598,
D,00000177,     -1864643,
D,00000178,     -1859807,
D,00000179,     -1855424,
D,00000180,     -1853856,
D,00000181,     -1855877,
D,00000182,     -1860670,
D,00000183,     -1866010,
D,00000184,     -1870640,
D,00000185,     -1871871,
D,00000186,     -1869912,
D,00000187,     -1865144,
D,00000188,     -1859801,
D,00000189,     -1854821,
D,00000190,     -1853407,
D,00000191,     -1855792,
D,00000192,     -1860800,
D,00000193,     -1866172,
D,00000194,     -1871091,
D,00000195,     -1872464,
D,00000196,     -1870230,
D,00000197,     -1865465,
D,00000198,     -1860357,
D,00000199,     -1855708,
D,00000200,     -1854546,
D,00000201,     -1856981,
D,00000202,     -1861832,
D,00000203,     -1866735,
D,00000204,     -1871388,
D,00000205,     -1872641,
D,00000206,     -1870669,
D,00000207,     -1865892,
D,00000208,     -1861107,
D,00000209,     -1856555,
D,00000210,     -1854882,
D,00000211,     -1856829,
D,00000212,     -1861859,
D,00000213,     -1866916,
D,00000214,     -1871482,
D,00000215,     -1872812,
D,00000216,     -1871026,
D,00000217,     -1866344,
D,00000218,     -1861289,
D,00000219,     -1856491,
D,00000220,     -1854759,
D,00000221,     -1856890,
D,00000222,     -1861842,
D,00000223,     -1866634,
D,00000224,     -1871050,
D,00000225,     -1872498,
D,00000226,     -1870697,
D,00000227,     -1866178,
D,00000228,     -1861046,
D,00000229,     -1856112,
D,00000230,     -1854570,
D,00000231,     -1856422,
D,00000232,     -1861101,
D,00000233,     -1866476,
D,00000234,     -1870987,
D,00000235,     -1872464,
D,00000236,     -1870679,
D,00000237,     -1865891,
D,00000238,     -1860513,
D,00000239,     -1855681,
D,00000240,     -1854066,
D,00000241,     -1855546,
D,00000242,     -1859961,
D,00000243,     -1865244,
D,00000244,     -1869832,
D,00000245,     -1870979,
D,00000246,     -1869040,
D,00000247,     -1864771,
D,00000248,     -1859875,
D,00000249,     -1854975,
D,00000250,     -1853211,
D,00000251,     -1854507,
D,00000252,     -1859053,
D,00000253,     -1864459,
D,00000254,     -1869266,
D,00000255,     -1870822,
D,00000000,     -1869102,
D,00000001,     -1864256,
D,00000002,     -1859048,
D,00000003,     -1854229,
D,00000004,     -1852509,
D,00000005,     -1854041,
D,00000006,     -1858586,
D,00000007,     -1864097,
D,00000008,     -1868937,
D,00000009,     -1870597,
D,00000010,     -1869213,
D,00000011,     -1864902,
D,00000012,     -1860265,
D,00000013,     -1855903,
D,00000014,     -1854329,
D,00000015,     -1856161,
D,00000016,     -1860766,
D,00000017,     -1865826,
D,00000018,     -1870808,
D,00000019,     -1872707,
D,00000020,     -1871339,
D,00000021,     -1867220,
D,00000022,     -1861989,
D,00000023,     -1856810,
D,00000024,     -1854607,
D,00000025,     -1856346,
D,00000026,     -1860886,
D,00000027,     -1866218,
D,00000028,     -1871169,
D,00000029,     -1873262,
D,00000030,     -1871552,
D,00000031,     -1866832,
D,00000032,     -1862051,
D,00000033,     -1857144,
D,00000034,     -1854976,
D,00000035,     -1856358,
D,00000036,     -1860939,
D,00000037,     -1865998,
D,00000038,     -1870811,
D,00000039,     -1872818,
D,00000040,     -1871432,
D,00000041,     -1867069,
D,00000042,     -1862174,
D,00000043,     -1857321,
D,00000044,     -1855195,
D,00000045,     -1856601,
D,00000046,     -1860672,
D,00000047,     -1865439,
D,00000048,     -1870447,
D,00000049,     -1872123,
D,00000050,     -1870106,
D,00000051,     -1864315,
D,00000052,     -1857041,
D,00000053,     -1849469,
D,00000054,     -1845112,
D,00000055,     -1845506,
D,00000056,     -1849756,
D,00000057,     -1855184,
D,00000058,     -1861009,
D,00000059,     -1863311,
D,00000060,     -1861958,
D,00000061,     -1857772,
D,00000062,     -1853087,
D,00000063,     -1848666,
D,00000064,     -1847318,
D,00000065,     -1850156,
D,00000066,     -1856904,
D,00000067,     -1863991,
D,00000068,     -1870831,
D,00000069,     -1874552,
D,00000070,     -1873627,
D,00000071,     -1869476,
D,00000072,     -1864096,
D,00000073,     -1858651,
D,00000074,     -1856173,
D,00000075,     -1857227,
D,00000076,     -1861804,
D,00000077,     -1867177,
D,00000078,     -1872007,
D,00000079,     -1873829,
D,00000080,     -1872369,
D,00000081,     -1868017,
D,00000082,     -1863216,
D,00000083,     -1858337,
D,00000084,     -1855474,
D,00000085,     -1856284,
D,00000086,     -1860534,
D,00000087,     -1865775,
D,00000088,     -1871029,
D,00000089,     -1873480,
D,00000090,     -1872034,
D,00000091,     -1867919,
D,00000092,     -1862756,
D,00000093,     -1857754,
D,00000094,     -1855317,
D,00000095,     -1856370,
D,00000096,     -1860577,
D,00000097,     -1865586,
D,00000098,     -1870519,
D,00000099,     -1873230,
D,00000100,     -1872414,
D,00000101,     -1868327,
D,00000102,     -1863106,
D,00000103,     -1858021,
D,00000104,     -1855471,
D,00000105,     -1856074,
D,00000106,     -1860174,
D,00000107,     -1865583,
D,00000108,     -1870472,
D,00000109,     -1873047,
D,00000110,     -1871820,
D,00000111,     -1867564,
D,00000112,     -1862391,
D,00000113,     -1857531,
D,00000114,     -1855338,
D,00000115,     -1856324,
D,00000116,     -1860590,
D,00000117,     -1866152,
D,00000118,     -1871090,
D,00000119,     -1873159,
D,00000120,     -1871909,
D,00000121,     -1867827,
D,00000122,     -1862524,
D,00000123,     -1857159,
D,00000124,     -1854507,
D,00000125,     -1855779,
D,00000126,     -1859869,
D,00000127,     -1864965,
D,00000128,     -1870076,
D,00000129,     -1872481,
D,00000130,     -1871527,
D,00000131,     -1867422,
D,00000132,     -1862053,
D,00000133,     -1856941,
D,00000134,     -1854471,
D,00000135,     -1855485,
D,00000136,     -1859227,
D,00000137,     -1864284,
D,00000138,     -1869343,
D,00000139,     -1871678,
D,00000140,     -1870721,
D,00000141,     -1866662,
D,00000142,     -1861641,
D,00000143,     -1856474,
D,00000144,     -1853793,
D,00000145,     -1854359,
D,00000146,     -1858047,
D,00000147,     -1863227,
D,00000148,     -1868134,
D,00000149,     -1870777,
D,00000150,     -1870007,
D,00000151,     -1865621,
D,00000152,     -1860437,
D,00000153,     -1855312,
D,00000154,     -1852458,
D,00000155,     -1853255,
D,00000156,     -1856806,
D,00000157,     -1861352,
D,00000158,     -1866273,
D,00000159,     -1869139,
D,00000160,     -1867997,
D,00000161,     -1863573,
D,00000162,     -1858324,
D,00000163,     -1852807,
D,00000164,     -1849436,
D,00000165,     -1849966,
D,00000166,     -1853999,
D,00000167,     -1858987,
D,00000168,     -1863447,
D,00000169,     -1866042,
D,00000170,     -1865295,
D,00000171,     -1861451,
D,00000172,     -1856412,
D,00000173,     -1851131,
D,00000174,     -1848051,
D,00000175,     -1848614,
D,00000176,     -1852257,
D,00000177,     -1857198,
D,00000178,     -1862102,
D,00000179,     -1865380,
D,00000180,     -1865052,
D,00000181,     -1860988,
D,00000182,     -1855859,
D,00000183,     -1850833,
D,00000184,     -1847557,
D,00000185,     -1847836,
D,00000186,     -1851907,
D,00000187,     -1857418,
D,00000188,     -1862460,
D,00000189,     -1865404,
D,00000190,     -1865079,
D,00000191,     -1861421,
D,00000192,     -1856735,
D,00000193,     -1852138,
D,00000194,     -1849174,
D,00000195,     -1849956,
D,00000196,     -1853938,
D,00000197,     -1859327,
D,00000198,     -1864789,
D,00000199,     -1868071,
D,00000200,     -1867843,
D,00000201,     -1864507,
D,00000202,     -1859431,
D,00000203,     -1854581,
D,00000204,     -1851904,
D,00000205,     -1852481,
D,00000206,     -1856363,
D,00000207,     -1861897,
D,00000208,     -1867404,
D,00000209,     -1870624,
D,00000210,     -1869993,
D,00000211,     -1866196,
D,00000212,     -1861119,
D,00000213,     -1856226,
D,00000214,     -1853090,
D,00000215,     -1853747,
D,00000216,     -1857791,
D,00000217,     -1863017,
D,00000218,     -1868113,
D,00000219,     -1871323,
D,00000220,     -1871044,
D,00000221,     -1867556,
D,00000222,     -1862344,
D,00000223,     -1857336,
D,00000224,     -1854184,
D,00000225,     -1854714,
D,00000226,     -1858344,
D,00000227,     -1863177,
D,00000228,     -1868431,
D,00000229,     -1871694,
D,00000230,     -1871288,
D,00000231,     -1867926,
D,00000232,     -1863032,
D,00000233,     -1857957,
D,00000234,     -1854271,
D,00000235,     -1854260,
D,00000236,     -1858129,
D,00000237,     -1863381,
D,00000238,     -1868643,
D,00000239,     -1872093,
D,00000240,     -1871547,
D,00000241,     -1867597,
D,00000242,     -1862507,
D,00000243,     -1857933,
D,00000244,     -1854557,
D,00000245,     -1854686,
D,00000246,     -1858266,
D,00000247,     -1863226,
D,00000248,     -1868137,
D,00000249,     -1871762,
D,00000250,     -1871604,
D,00000251,     -1868226,
D,00000252,     -1863113,
D,00000253,     -1857619,
D,00000254,     -1853816,
D,00000255,     -1854084,
D,00000000,     -1857685,
D,00000001,     -1863221,
D,00000002,     -1868265,
D,00000003,     -1871616,
D,00000004,     -1871297,
D,00000005,     -1867796,
D,00000006,     -1862498,
D,00000007,     -1857321,
D,00000008,     -1854044,
D,00000009,     -1853961,
D,00000010,     -1857266,
D,00000011,     -1862570,
D,00000012,     -1867687,
D,00000013,     -1871154,
D,00000014,     -1871179,
D,00000015,     -1867844,
D,00000016,     -1862662,
D,00000017,     -1857429,
D,00000018,     -1854059,
D,00000019,     -1854381,
D,00000020,     -1857427,
D,00000021,     -1862371,
D,00000022,     -1867611,
D,00000023,     -1871336,
D,00000024,     -1871151,
D,00000025,     -1867736,
D,00000026,     -1862649,
D,00000027,     -1857461,
D,00000028,     -1854020,
D,00000029,     -1854119,
D,00000030,     -1857286,
D,00000031,     -1862348,
D,00000032,     -1867732,
D,00000033,     -1871323,
D,00000034,     -1871251,
D,00000035,     -1867906,
D,00000036,     -1862704,
D,00000037,     -1857641,
D,00000038,     -1854121,
D,00000039,     -1854319,
D,00000040,     -1857542,
D,00000041,     -1862564,
D,00000042,     -1867624,
D,00000043,     -1871254,
D,00000044,     -1871339,
D,00000045,     -1868216,
D,00000046,     -1863336,
D,00000047,     -1858202,
D,00000048,     -1854709,
D,00000049,     -1854703,
D,00000050,     -1857704,
D,00000051,     -1862571,
D,00000052,     -1867635,
D,00000053,     -1871558,
D,00000054,     -1871370,
D,00000055,     -1868301,
D,00000056,     -1863821,
D,00000057,     -1858879,
D,00000058,     -1854757,
D,00000059,     -1854532,
D,00000060,     -1857548,
D,00000061,     -1862574,
D,00000062,     -1867618,
D,00000063,     -1871342,
D,00000064,     -1871686,
D,00000065,     -1868882,
D,00000066,     -1863709,
D,00000067,     -1858846,
D,00000068,     -1855088,
D,00000069,     -1854653,
D,00000070,     -1857805,
D,00000071,     -1862867,
D,00000072,     -1867867,
D,00000073,     -1871643,
D,00000074,     -1872212,
D,00000075,     -1869326,
D,00000076,     -1864336,
D,00000077,     -1859272,
D,00000078,     -1855075,
D,00000079,     -1854537,
D,00000080,     -1857449,
D,00000081,     -1862482,
D,00000082,     -1867511,
D,00000083,     -1871506,
D,00000084,     -1872162,
D,00000085,     -1869798,
D,00000086,     -1865017,
D,00000087,     -1859433,
D,00000088,     -1855443,
D,00000089,     -1854599,
D,00000090,     -1857262,
D,00000091,     -1862424,
D,00000092,     -1867512,
D,00000093,     -1871454,
D,00000094,     -1872355,
D,00000095,     -1869517,
D,00000096,     -1864164,
D,00000097,     -1858941,
D,00000098,     -1855117,
D,00000099,     -1854897,
D,00000100,     -1857855,
D,00000101,     -1862787,
D,00000102,     -1867911,
D,00000103,     -1871574,
D,00000104,     -1872172,
D,00000105,     -1869381,
D,00000106,     -1864419,
D,00000107,     -1859121,
D,00000108,     -1855130,
D,00000109,     -1854698,
D,00000110,     -1857682,
D,00000111,     -1862484,
D,00000112,     -1867463,
D,00000113,     -1871421,
D,00000114,     -1871837,
D,00000115,     -1868744,
D,00000116,     -1863797,
D,00000117,     -1858489,
D,00000118,     -1854234,
D,00000119,     -1853644,
D,00000120,     -1855940,
D,00000121,     -1860600,
D,00000122,     -1865674,
D,00000123,     -1869704,
D,00000124,     -1870409,
D,00000125,     -1867732,
D,00000126,     -1862852,
D,00000127,     -1858031,
D,00000128,     -1853982,
D,00000129,     -1853421,
D,00000130,     -1856031,
D,00000131,     -1860562,
D,00000132,     -1865346,
D,00000133,     -1869619,
D,00000134,     -1870369,
D,00000135,     -1867560,
D,00000136,     -1862417,
D,00000137,     -1857130,
D,00000138,     -1853034,
D,00000139,     -1852587,
D,00000140,     -1855372,
D,00000141,     -1860229,
D,00000142,     -1865041,
D,00000143,     -1869607,
D,00000144,     -1870772,
D,00000145,     -1868551,
D,00000146,     -1863946,
D,00000147,     -1859146,
D,00000148,     -1855161,
D,00000149,     -1854529,
D,00000150,     -1857011,
D,00000151,     -1862023,
D,00000152,     -1867006,
D,00000153,     -1871262,
D,00000154,     -1872220,
D,00000155,     -1869787,
D,00000156,     -1864865,
D,00000157,     -1859622,
D,00000158,     -1855276,
D,00000159,     -1854456,
D,00000160,     -1857005,
D,00000161,     -1862054,
D,00000162,     -1867273,
D,00000163,     -1871234,
D,00000164,     -1871988,
D,00000165,     -1869564,
D,00000166,     -1864590,
D,00000167,     -1859741,
D,00000168,     -1855817,
D,00000169,     -1854817,
D,00000170,     -1856809,
D,00000171,     -1861615,
D,00000172,     -1866714,
D,00000173,     -1871242,
D,00000174,     -1871994,
D,00000175,     -1869752,
D,00000176,     -1864882,
D,00000177,     -1859389,
D,00000178,     -1855287,
D,00000179,     -1854166,
D,00000180,     -1856280,
D,00000181,     -1861329,
D,00000182,     -1866429,
D,00000183,     -1869945,
D,00000184,     -1869605,
D,00000185,     -1865721,
D,00000186,     -1859075,
D,00000187,     -1852048,
D,00000188,     -1846897,
D,00000189,     -1845774,
D,00000190,     -1848229,
D,00000191,     -1853208,
D,00000192,     -1858627,
D,00000193,     -1862608,
D,00000194,     -1863771,
D,00000195,     -1862110,
D,00000196,     -1858418,
D,00000197,     -1854331,
D,00000198,     -1851144,
D,00000199,     -1851941,
D,00000200,     -1855707,
D,00000201,     -1862426,
D,00000202,     -1869033,
D,00000203,     -1873777,
D,00000204,     -1874570,
D,00000205,     -1871592,
D,00000206,     -1866694,
D,00000207,     -1861691,
D,00000208,     -1856881,
D,00000209,     -1855762,
D,00000210,     -1858452,
D,00000211,     -1863102,
D,00000212,     -1867610,
D,00000213,     -1871802,
D,00000214,     -1872861,
D,00000215,     -1870710,
D,00000216,     -1865725,
D,00000217,     -1860443,
D,00000218,     -1855916,
D,00000219,     -1854724,
D,00000220,     -1856967,
D,00000221,     -1861956,
D,00000222,     -1866731,
D,00000223,     -1871011,
D,00000224,     -1872310,
D,00000225,     -1870179,
D,00000226,     -1865612,
D,00000227,     -1860624,
D,00000228,     -1856223,
D,00000229,     -1854717,
D,00000230,     -1856306,
D,00000231,     -1861215,
D,00000232,     -1866596,
D,00000233,     -1870910,
D,00000234,     -1872236,
D,00000235,     -1870274,
D,00000236,     -1865047,
D,00000237,     -1859984,
D,00000238,     -1855455,
D,00000239,     -1854207,
D,00000240,     -1856324,
D,00000241,     -1861352,
D,00000242,     -1866397,
D,00000243,     -1871127,
D,00000244,     -1872675,
D,00000245,     -1870604,
D,00000246,     -1865790,
D,00000247,     -1860479,
D,00000248,     -1855872,
D,00000249,     -1854464,
D,00000250,     -1856072,
D,00000251,     -1860442,
D,00000252,     -1865857,
D,00000253,     -1870317,
D,00000254,     -1871417,
D,00000255,     -1869917,
D,00000000,     -1865333,
D,00000001,     -1859947,
D,00000002,     -1855161,
D,00000003,     -1853410,
D,00000004,     -1855409,
D,00000005,     -1860419,
D,00000006,     -1865882,
D,00000007,     -1870459,
D,00000008,     -1871739,
D,00000009,     -1869671,
D,00000010,     -1864589,
D,00000011,     -1859237,
D,00000012,     -1854992,
D,00000013,     -1853560,
D,00000014,     -1855269,
D,00000015,     -1859786,
D,00000016,     -1864866,
D,00000017,     -1869741,
D,00000018,     -1871194,
D,00000019,     -1869274,
D,00000020,     -1864392,
D,00000021,     -1859301,
D,00000022,     -1854366,
D,00000023,     -1852577,
D,00000024,     -1854262,
D,00000025,     -1858737,
D,00000026,     -1863704,
D,00000027,     -1868346,
D,00000028,     -1869692,
D,00000029,     -1867789,
D,00000030,     -1862957,
D,00000031,     -1857752,
D,00000032,     -1852776,
D,00000033,     -1850860,
D,00000034,     -1852512,
D,00000035,     -1856829,
D,00000036,     -1861437,
D,00000037,     -1866001,
D,00000038,     -1867599,
D,00000039,     -1865797,
D,00000040,     -1860885,
D,00000041,     -1855626,
D,00000042,     -1850704,
D,00000043,     -1848735,
D,00000044,     -1850046,
D,00000045,     -1854629,
D,00000046,     -1859758,
D,00000047,     -1863758,
D,00000048,     -1865150,
D,00000049,     -1863583,
D,00000050,     -1858917,
D,00000051,     -1853687,
D,00000052,     -1848638,
D,00000053,     -1846621,
D,00000054,     -1848019,
D,00000055,     -1852636,
D,00000056,     -1857392,
D,00000057,     -1862196,
D,00000058,     -1864328,
D,00000059,     -1862672,
D,00000060,     -1858113,
D,00000061,     -1853162,
D,00000062,     -1848242,
D,00000063,     -1846468,
D,00000064,     -1847831,
D,00000065,     -1852379,
D,00000066,     -1857504,
D,00000067,     -1862652,
D,00000068,     -1864744,
D,00000069,     -1863608,
D,00000070,     -1859399,
D,00000071,     -1854544,
D,00000072,     -1849917,
D,00000073,     -1848272,
D,00000074,     -1849933,
D,00000075,     -1854599,
D,00000076,     -1860082,
D,00000077,     -1865188,
D,00000078,     -1867561,
D,00000079,     -1866431,
D,00000080,     -1862257,
D,00000081,     -1857364,
D,00000082,     -1852669,
D,00000083,     -1850976,
D,00000084,     -1852734,
D,00000085,     -1857221,
D,00000086,     -1862507,
D,00000087,     -1867554,
D,00000088,     -1870116,
D,00000089,     -1868541,
D,00000090,     -1864220,
D,00000091,     -1859672,
D,00000092,     -1854621,
D,00000093,     -1852403,
D,00000094,     -1853783,
D,00000095,     -1858276,
D,00000096,     -1863675,
D,00000097,     -1868870,
D,00000098,     -1871036,
D,00000099,     -1869613,
D,00000100,     -1865194,
D,00000101,     -1860058,
D,00000102,     -1855071,
D,00000103,     -1853005,
D,00000104,     -1854398,
D,00000105,     -1859107,
D,00000106,     -1864225,
D,00000107,     -1869134,
D,00000108,     -1871421,
D,00000109,     -1870272,
D,00000110,     -1865776,
D,00000111,     -1860535,
D,00000112,     -1855741,
D,00000113,     -1853072,
D,00000114,     -1853947,
D,00000115,     -1858506,
D,00000116,     -1864096,
D,00000117,     -1869177,
D,00000118,     -1871267,
D,00000119,     -1869904,
D,00000120,     -1865408,
D,00000121,     -1860246,
D,00000122,     -1855255,
D,00000123,     -1852900,
D,00000124,     -1854204,
D,00000125,     -1858734,
D,00000126,     -1863743,
D,00000127,     -1868356,
D,00000128,     -1870658,
D,00000129,     -1869477,
D,00000130,     -1865654,
D,00000131,     -1860746,
D,00000132,     -1855441,
D,00000133,     -1852903,
D,00000134,     -1854061,
D,00000135,     -1858200,
D,00000136,     -1863403,
D,00000137,     -1868427,
D,00000138,     -1870726,
D,00000139,     -1869817,
D,00000140,     -1865632,
D,00000141,     -1860545,
D,00000142,     -1855824,
D,00000143,     -1853066,
D,00000144,     -1853832,
D,00000145,     -1857945,
D,00000146,     -1863238,
D,00000147,     -1868109,
D,00000148,     -1870565,
D,00000149,     -1869738,
D,00000150,     -1865655,
D,00000151,     -1860474,
D,00000152,     -1855542,
D,00000153,     -1853152,
D,00000154,     -1854096,
D,00000155,     -1858034,
D,00000156,     -1863145,
D,00000157,     -1868186,
D,00000158,     -1870832,
D,00000159,     -1869740,
D,00000160,     -1865616,
D,00000161,     -1860737,
D,00000162,     -1855737,
D,00000163,     -1853116,
D,00000164,     -1854423,
D,00000165,     -1858721,
D,00000166,     -1863694,
D,00000167,     -1868796,
D,00000168,     -1871117,
D,00000169,     -1869769,
D,00000170,     -1865827,
D,00000171,     -1861175,
D,00000172,     -1856194,
D,00000173,     -1853400,
D,00000174,     -1854041,
D,00000175,     -1857995,
D,00000176,     -1863166,
D,00000177,     -1868370,
D,00000178,     -1871002,
D,00000179,     -1870026,
D,00000180,     -1866170,
D,00000181,     -1861299,
D,00000182,     -1856170,
D,00000183,     -1853124,
D,00000184,     -1853639,
D,00000185,     -1857589,
D,00000186,     -1862894,
D,00000187,     -1868084,
D,00000188,     -1870941,
D,00000189,     -1870200,
D,00000190,     -1866309,
D,00000191,     -1861388,
D,00000192,     -1856632,
D,00000193,     -1853708,
D,00000194,     -1854271,
D,00000195,     -1858607,
D,00000196,     -1863595,
D,00000197,     -1868534,
D,00000198,     -1871463,
D,00000199,     -1870634,
D,00000200,     -1866989,
D,00000201,     -1861772,
D,00000202,     -1856764,
D,00000203,     -1853727,
D,00000204,     -1854106,
D,00000205,     -1858188,
D,00000206,     -1863514,
D,00000207,     -1868672,
D,00000208,     -1871277,
D,00000209,     -1870519,
D,00000210,     -1866711,
D,00000211,     -1861681,
D,00000212,     -1856636,
D,00000213,     -1853575,
D,00000214,     -1854086,
D,00000215,     -1857566,
D,00000216,     -1862823,
D,00000217,     -1868072,
D,00000218,     -1871017,
D,00000219,     -1870746,
D,00000220,     -1867036,
D,00000221,     -1861905,
D,00000222,     -1856889,
D,00000223,     -1853934,
D,00000224,     -1854533,
D,00000225,     -1857866,
D,00000226,     -1862876,
D,00000227,     -1868181,
D,00000228,     -1871279,
D,00000229,     -1870728,
D,00000230,     -1866999,
D,00000231,     -1861712,
D,00000232,     -1856532,
D,00000233,     -1853133,
D,00000234,     -1853426,
D,00000235,     -1857231,
D,00000236,     -1862233,
D,00000237,     -1867414,
D,00000238,     -1870679,
D,00000239,     -1870226,
D,00000240,     -1866209,
D,00000241,     -1860647,
D,00000242,     -1854927,
D,00000243,     -1851735,
D,00000244,     -1852221,
D,00000245,     -1855854,
D,00000246,     -1861281,
D,00000247,     -1866544,
D,00000248,     -1869374,
D,00000249,     -1868606,
D,00000250,     -1864667,
D,00000251,     -1859727,
D,00000252,     -1854918,
D,00000253,     -1851513,
D,00000254,     -1851791,
D,00000255,     -1855426,
D,00000000,     -1860324,
D,00000001,     -1865089,
D,00000002,     -1868091,
D,00000003,     -1867930,
D,00000004,     -1865009,
D,00000005,     -1859984,
D,00000006,     -1855002,
D,00000007,     -1851520,
D,00000008,     -1851427,
D,00000009,     -1855232,
D,00000010,     -1860753,
D,00000011,     -1866166,
D,00000012,     -1869871,
D,00000013,     -1869881,
D,00000014,     -1866773,
D,00000015,     -1861461,
D,00000016,     -1856479,
D,00000017,     -1853227,
D,00000018,     -1853422,
D,00000019,     -1856634,
D,00000020,     -1861864,
D,00000021,     -1867066,
D,00000022,     -1870116,
D,00000023,     -1869811,
D,00000024,     -1866510,
D,00000025,     -1861559,
D,00000026,     -1856514,
D,00000027,     -1852987,
D,00000028,     -1853212,
D,00000029,     -1856760,
D,00000030,     -1861924,
D,00000031,     -1866845,
D,00000032,     -1870181,
D,00000033,     -1870193,
D,00000034,     -1866843,
D,00000035,     -1861641,
D,00000036,     -1856560,
D,00000037,     -1853385,
D,00000038,     -1853419,
D,00000039,     -1856776,
D,00000040,     -1861679,
D,00000041,     -1867007,
D,00000042,     -1870428,
D,00000043,     -1869859,
D,00000044,     -1866472,
D,00000045,     -1861792,
D,00000046,     -1856462,
D,00000047,     -1852850,
D,00000048,     -1852955,
D,00000049,     -1855652,
D,00000050,     -1859642,
D,00000051,     -1863171,
D,00000052,     -1864531,
D,00000053,     -1862601,
D,00000054,     -1858281,
D,00000055,     -1853000,
D,00000056,     -1847704,
D,00000057,     -1844396,
D,00000058,     -1844656,
D,00000059,     -1847925,
D,00000060,     -1852831,
D,00000061,     -1858544,
D,00000062,     -1863312,
D,00000063,     -1864314,
D,00000064,     -1862089,
D,00000065,     -1858967,
D,00000066,     -1855574,
D,00000067,     -1853408,
D,00000068,     -1855250,
D,00000069,     -1858916,
D,00000070,     -1863732,
D,00000071,     -1868318,
D,00000072,     -1871944,
D,00000073,     -1872221,
D,00000074,     -1868804,
D,00000075,     -1863806,
D,00000076,     -1859164,
D,00000077,     -1855174,
D,00000078,     -1854406,
D,00000079,     -1857111,
D,00000080,     -1862287,
D,00000081,     -1867406,
D,00000082,     -1871199,
D,00000083,     -1871378,
D,00000084,     -1868360,
D,00000085,     -1863180,
D,00000086,     -1858101,
D,00000087,     -1854243,
D,00000088,     -1854047,
D,00000089,     -1857180,
D,00000090,     -1862135,
D,00000091,     -1867035,
D,00000092,     -1870802,
D,00000093,     -1871126,
D,00000094,     -1868008,
D,00000095,     -1862861,
D,00000096,     -1857984,
D,00000097,     -1854282,
D,00000098,     -1854076,
D,00000099,     -1857108,
D,00000100,     -1862327,
D,00000101,     -1867571,
D,00000102,     -1871104,
D,00000103,     -1870864,
D,00000104,     -1868167,
D,00000105,     -1863402,
D,00000106,     -1858150,
D,00000107,     -1854165,
D,00000108,     -1854185,
D,00000109,     -1857366,
D,00000110,     -1861861,
D,00000111,     -1866754,
D,00000112,     -1870309,
D,00000113,     -1870644,
D,00000114,     -1868119,
D,00000115,     -1863151,
D,00000116,     -1858149,
D,00000117,     -1854304,
D,00000118,     -1853868,
D,00000119,     -1856762,
D,00000120,     -1861622,
D,00000121,     -1866767,
D,00000122,     -1870629,
D,00000123,     -1870948,
D,00000124,     -1868130,
D,00000125,     -1863516,
D,00000126,     -1858471,
D,00000127,     -1854420,
D,00000128,     -1853859,
D,00000129,     -1856614,
D,00000130,     -1861264,
D,00000131,     -1866422,
D,00000132,     -1870489,
D,00000133,     -1870792,
D,00000134,     -1867837,
D,00000135,     -1863231,
D,00000136,     -1858371,
D,00000137,     -1854021,
D,00000138,     -1853027,
D,00000139,     -1855824,
D,00000140,     -1860831,
D,00000141,     -1865906,
D,00000142,     -1869984,
D,00000143,     -1870442,
D,00000144,     -1867598,
D,00000145,     -1862642,
D,00000146,     -1857429,
D,00000147,     -1853159,
D,00000148,     -1852242,
D,00000149,     -1854955,
D,00000150,     -1859923,
D,00000151,     -1864807,
D,00000152,     -1868507,
D,00000153,     -1868670,
D,00000154,     -1865769,
D,00000155,     -1860633,
D,00000156,     -1855643,
D,00000157,     -1851719,
D,00000158,     -1850200,
D,00000159,     -1852418,
D,00000160,     -1857452,
D,00000161,     -1862204,
D,00000162,     -1865886,
D,00000163,     -1866320,
D,00000164,     -1863505,
D,00000165,     -1858347,
D,00000166,     -1852956,
D,00000167,     -1848410,
D,00000168,     -1847347,
D,00000169,     -1849659,
D,00000170,     -1854547,
D,00000171,     -1859209,
D,00000172,     -1863200,
D,00000173,     -1863866,
D,00000174,     -1861041,
D,00000175,     -1855976,
D,00000176,     -1850590,
D,00000177,     -1846463,
D,00000178,     -1845643,
D,00000179,     -1848100,
D,00000180,     -1853036,
D,00000181,     -1857905,
D,00000182,     -1862016,
D,00000183,     -1863367,
D,00000184,     -1861066,
D,00000185,     -1855771,
D,00000186,     -1850779,
D,00000187,     -1846802,
D,00000188,     -1846114,
D,00000189,     -1848591,
D,00000190,     -1853435,
D,00000191,     -1858778,
D,00000192,     -1863531,
D,00000193,     -1864559,
D,00000194,     -1862475,
D,00000195,     -1858170,
D,00000196,     -1853106,
D,00000197,     -1848917,
D,00000198,     -1848329,
D,00000199,     -1851036,
D,00000200,     -1856119,
D,00000201,     -1861656,
D,00000202,     -1866740,
D,00000203,     -1867607,
D,00000204,     -1865044,
D,00000205,     -1860368,
D,00000206,     -1855481,
D,00000207,     -1851402,
D,00000208,     -1850627,
D,00000209,     -1853228,
D,00000210,     -1858264,
D,00000211,     -1863628,
D,00000212,     -1868159,
D,00000213,     -1869244,
D,00000214,     -1866936,
D,00000215,     -1861921,
D,00000216,     -1856965,
D,00000217,     -1852660,
D,00000218,     -1851589,
D,00000219,     -1854049,
D,00000220,     -1859067,
D,00000221,     -1864207,
D,00000222,     -1868584,
D,00000223,     -1870086,
D,00000224,     -1868187,
D,00000225,     -1863417,
D,00000226,     -1858317,
D,00000227,     -1853836,
D,00000228,     -1852681,
D,00000229,     -1854749,
D,00000230,     -1859519,
D,00000231,     -1865085,
D,00000232,     -1869606,
D,00000233,     -1870605,
D,00000234,     -1868498,
D,00000235,     -1863892,
D,00000236,     -1858884,
D,00000237,     -1854376,
D,00000238,     -1852854,
D,00000239,     -1854799,
D,00000240,     -1859814,
D,00000241,     -1865064,
D,00000242,     -1869560,
D,00000243,     -1870812,
D,00000244,     -1868686,
D,00000245,     -1863934,
D,00000246,     -1858798,
D,00000247,     -1854184,
D,00000248,     -1853036,
D,00000249,     -1855239,
D,00000250,     -1860151,
D,00000251,     -1865249,
D,00000252,     -1869601,
D,00000253,     -1870680,
D,00000254,     -1868619,
D,00000255,     -1863839,
D,00000000,     -1858792,
D,00000001,     -1854032,
D,00000002,     -1852611,
D,00000003,     -1854939,
D,00000004,     -1859847,
D,00000005,     -1864722,
D,00000006,     -1869084,
D,00000007,     -1870466,
D,00000008,     -1868316,
D,00000009,     -1863612,
D,00000010,     -1858620,
D,00000011,     -1854254,
D,00000012,     -1853170,
D,00000013,     -1855174,
D,00000014,     -1859991,
D,00000015,     -1864987,
D,00000016,     -1869266,
D,00000017,     -1870196,
D,00000018,     -1868166,
D,00000019,     -1863622,
D,00000020,     -1858714,
D,00000021,     -1854094,
D,00000022,     -1852488,
D,00000023,     -1854854,
D,00000024,     -1860042,
D,00000025,     -1865269,
D,00000026,     -1869794,
D,00000027,     -1871559,
D,00000028,     -1869639,
D,00000029,     -1864824,
D,00000030,     -1859739,
D,00000031,     -1855076,
D,00000032,     -1853314,
D,00000033,     -1855321,
D,00000034,     -1860341,
D,00000035,     -1865612,
D,00000036,     -1870180,
D,00000037,     -1871477,
D,00000038,     -1869719,
D,00000039,     -1865274,
D,00000040,     -1859938,
D,00000041,     -1855219,
D,00000042,     -1853689,
D,00000043,     -1855059,
D,00000044,     -1859697,
D,00000045,     -1864979,
D,00000046,     -1869344,
D,00000047,     -1871032,
D,00000048,     -1869522,
D,00000049,     -1865036,
D,00000050,     -1860037,
D,00000051,     -1855280,
D,00000052,     -1853437,
D,00000053,     -1855126,
D,00000054,     -1859901,
D,00000055,     -1865042,
D,00000056,     -1869394,
D,00000057,     -1870973,
D,00000058,     -1869603,
D,00000059,     -1865179,
D,00000060,     -1859959,
D,00000061,     -1855111,
D,00000062,     -1853779,
D,00000063,     -1855886,
D,00000064,     -1860134,
D,00000065,     -1864982,
D,00000066,     -1869748,
D,00000067,     -1871624,
D,00000068,     -1870121,
D,00000069,     -1865585,
D,00000070,     -1860312,
D,00000071,     -1855414,
D,00000072,     -1853470,
D,00000073,     -1854996,
D,00000074,     -1859769,
D,00000075,     -1864894,
D,00000076,     -1869610,
D,00000077,     -1871666,
D,00000078,     -1869971,
D,00000079,     -1865449,
D,00000080,     -1860267,
D,00000081,     -1854959,
D,00000082,     -1853257,
D,00000083,     -1854861,
D,00000084,     -1859197,
D,00000085,     -1864429,
D,00000086,     -1869349,
D,00000087,     -1871371,
D,00000088,     -1869759,
D,00000089,     -1865393,
D,00000090,     -1860564,
D,00000091,     -1855540,
D,00000092,     -1853789,
D,00000093,     -1855569,
D,00000094,     -1859854,
D,00000095,     -1864870,
D,00000096,     -1869599,
D,00000097,     -1871399,
D,00000098,     -1869879,
D,00000099,     -1865612,
D,00000100,     -1860480,
D,00000101,     -1855454,
D,00000102,     -1853327,
D,00000103,     -1854629,
D,00000104,     -1859036,
D,00000105,     -1864321,
D,00000106,     -1869498,
D,00000107,     -1871396,
D,00000108,     -1869857,
D,00000109,     -1865319,
D,00000110,     -1860234,
D,00000111,     -1855372,
D,00000112,     -1853001,
D,00000113,     -1854348,
D,00000114,     -1858946,
D,00000115,     -1863852,
D,00000116,     -1868644,
D,00000117,     -1870777,
D,00000118,     -1869296,
D,00000119,     -1864557,
D,00000120,     -1859386,
D,00000121,     -1854540,
D,00000122,     -1852371,
D,00000123,     -1853551,
D,00000124,     -1857599,
D,00000125,     -1862677,
D,00000126,     -1867322,
D,00000127,     -1869365,
D,00000128,     -1868024,
D,00000129,     -1863719,
D,00000130,     -1858591,
D,00000131,     -1853759,
D,00000132,     -1851537,
D,00000133,     -1852625,
D,00000134,     -1856822,
D,00000135,     -1861866,
D,00000136,     -1866399,
D,00000137,     -1868464,
D,00000138,     -1867271,
D,00000139,     -1862784,
D,00000140,     -1857631,
D,00000141,     -1852872,
D,00000142,     -1850724,
D,00000143,     -1852227,
D,00000144,     -1856601,
D,00000145,     -1861638,
D,00000146,     -1866545,
D,00000147,     -1868989,
D,00000148,     -1868271,
D,00000149,     -1864802,
D,00000150,     -1859812,
D,00000151,     -1855069,
D,00000152,     -1853011,
D,00000153,     -1854316,
D,00000154,     -1858524,
D,00000155,     -1863759,
D,00000156,     -1868789,
D,00000157,     -1870886,
D,00000158,     -1870076,
D,00000159,     -1866098,
D,00000160,     -1861085,
D,00000161,     -1855842,
D,00000162,     -1852818,
D,00000163,     -1853544,
D,00000164,     -1858186,
D,00000165,     -1864061,
D,00000166,     -1869231,
D,00000167,     -1871179,
D,00000168,     -1869817,
D,00000169,     -1865902,
D,00000170,     -1860862,
D,00000171,     -1855797,
D,00000172,     -1853331,
D,00000173,     -1854451,
D,00000174,     -1858803,
D,00000175,     -1863627,
D,00000176,     -1868819,
D,00000177,     -1871661,
D,00000178,     -1870722,
D,00000179,     -1866454,
D,00000180,     -1861407,
D,00000181,     -1856647,
D,00000182,     -1854637,
D,00000183,     -1855657,
D,00000184,     -1859065,
D,00000185,     -1863862,
D,00000186,     -1868431,
D,00000187,     -1870507,
D,00000188,     -1868217,
D,00000189,     -1862199,
D,00000190,     -1854828,
D,00000191,     -1847443,
D,00000192,     -1843445,
D,00000193,     -1843915,
D,00000194,     -1847797,
D,00000195,     -1853629,
D,00000196,     -1858878,
D,00000197,     -1861589,
D,00000198,     -1861104,
D,00000199,     -1857741,
D,00000200,     -1853295,
D,00000201,     -1849424,
D,00000202,     -1848142,
D,00000203,     -1851117,
D,00000204,     -1856776,
D,00000205,     -1863761,
D,00000206,     -1870631,
D,00000207,     -1874138,
D,00000208,     -1873319,
D,00000209,     -1868923,
D,00000210,     -1863687,
D,00000211,     -1858639,
D,00000212,     -1855835,
D,00000213,     -1856503,
D,00000214,     -1860308,
D,00000215,     -1865162,
D,00000216,     -1870076,
D,00000217,     -1872779,
D,00000218,     -1872266,
D,00000219,     -1868006,
D,00000220,     -1862561,
D,00000221,     -1857523,
D,00000222,     -1854739,
D,00000223,     -1855195,
D,00000224,     -1859048,
D,00000225,     -1864244,
D,00000226,     -1869213,
D,00000227,     -1871802,
D,00000228,     -1871276,
D,00000229,     -1867533,
D,00000230,     -1862708,
D,00000231,     -1857731,
D,00000232,     -1854767,
D,00000233,     -1854985,
D,00000234,     -1858752,
D,00000235,     -1863865,
D,00000236,     -1868754,
D,00000237,     -1871960,
D,00000238,     -1871184,
D,00000239,     -1867476,
D,00000240,     -1862488,
D,00000241,     -1857588,
D,00000242,     -1854349,
D,00000243,     -1854687,
D,00000244,     -1858668,
D,00000245,     -1864061,
D,00000246,     -1868983,
D,00000247,     -1871932,
D,00000248,     -1871463,
D,00000249,     -1868011,
D,00000250,     -1862787,
D,00000251,     -1857538,
D,00000252,     -1853837,
D,00000253,     -1854295,
D,00000254,     -1858499,
D,00000255,     -1863702,
D,00000000,     -1868522,
D,00000001,     -1871432,
D,00000002,     -1871001,
D,00000003,     -1867436,
D,00000004,     -1862267,
D,00000005,     -1857195,
D,00000006,     -1853559,
D,00000007,     -1853961,
D,00000008,     -1857722,
D,00000009,     -1862985,
D,00000010,     -1868082,
D,00000011,     -1871091,
D,00000012,     -1870889,
D,00000013,     -1867384,
D,00000014,     -1862326,
D,00000015,     -1856840,
D,00000016,     -1853139,
D,00000017,     -1853335,
D,00000018,     -1857028,
D,00000019,     -1862098,
D,00000020,     -1866871,
D,00000021,     -1870045,
D,00000022,     -1869634,
D,00000023,     -1866118,
D,00000024,     -1860959,
D,00000025,     -1856102,
D,00000026,     -1852590,
D,00000027,     -1852761,
D,00000028,     -1855691,
D,00000029,     -1860419,
D,00000030,     -1865416,
D,00000031,     -1868698,
D,00000032,     -1868415,
D,00000033,     -1864999,
D,00000034,     -1859679,
D,00000035,     -1854551,
D,00000036,     -1850904,
D,00000037,     -1850809,
D,00000038,     -1853974,
D,00000039,     -1858802,
D,00000040,     -1863479,
D,00000041,     -1866877,
D,00000042,     -1866365,
D,00000043,     -1862691,
D,00000044,     -1857406,
D,00000045,     -1851926,
D,00000046,     -1848327,
D,00000047,     -1848377,
D,00000048,     -1851439,
D,00000049,     -1856347,
D,00000050,     -1861269,
D,00000051,     -1864631,
D,00000052,     -1863817,
D,00000053,     -1860259,
D,00000054,     -1855546,
D,00000055,     -1850212,
D,00000056,     -1846216,
D,00000057,     -1846009,
D,00000058,     -1849454,
D,00000059,     -1854349,
D,00000060,     -1859426,
D,00000061,     -1862921,
D,00000062,     -1862877,
D,00000063,     -1859501,
D,00000064,     -1854404,
D,00000065,     -1849028,
D,00000066,     -1845292,
D,00000067,     -1845560,
D,00000068,     -1849055,
D,00000069,     -1854027,
D,00000070,     -1859223,
D,00000071,     -1863160,
D,00000072,     -1863354,
D,00000073,     -1860341,
D,00000074,     -1855499,
D,00000075,     -1850837,
D,00000076,     -1847359,
D,00000077,     -1848014,
D,00000078,     -1851496,
D,00000079,     -1856977,
D,00000080,     -1862534,
D,00000081,     -1866475,
D,00000082,     -1866736,
D,00000083,     -1863976,
D,00000084,     -1859141,
D,00000085,     -1854339,
D,00000086,     -1851139,
D,00000087,     -1851260,
D,00000088,     -1854854,
D,00000089,     -1860214,
D,00000090,     -1865301,
D,00000091,     -1869118,
D,00000092,     -1869486,
D,00000093,     -1866583,
D,00000094,     -1861779,
D,00000095,     -1856690,
D,00000096,     -1853308,
D,00000097,     -1853215,
D,00000098,     -1856486,
D,00000099,     -1861494,
D,00000100,     -1867019,
D,00000101,     -1870578,
D,00000102,     -1870592,
D,00000103,     -1867779,
D,00000104,     -1862873,
D,00000105,     -1858022,
D,00000106,     -1854359,
D,00000107,     -1853534,
D,00000108,     -1856544,
D,00000109,     -1861865,
D,00000110,     -1866914,
D,00000111,     -1870705,
D,00000112,     -1870827,
D,00000113,     -1868212,
D,00000114,     -1863446,
D,00000115,     -1858352,
D,00000116,     -1854557,
D,00000117,     -1854122,
D,00000118,     -1857049,
D,00000119,     -1862461,
D,00000120,     -1867721,
D,00000121,     -1871396,
D,00000122,     -1871630,
D,00000123,     -1868909,
D,00000124,     -1864079,
D,00000125,     -1858925,
D,00000126,     -1854429,
D,00000127,     -1854121,
D,00000128,     -1857219,
D,00000129,     -1862298,
D,00000130,     -1867448,
D,00000131,     -1871022,
D,00000132,     -1871393,
D,00000133,     -1868529,
D,00000134,     -1862888,
D,00000135,     -1858249,
D,00000136,     -1854435,
D,00000137,     -1853873,
D,00000138,     -1856576,
D,00000139,     -1861577,
D,00000140,     -1866894,
D,00000141,     -1870680,
D,00000142,     -1871382,
D,00000143,     -1868609,
D,00000144,     -1863575,
D,00000145,     -1858685,
D,00000146,     -1854914,
D,00000147,     -1854526,
D,00000148,     -1856860,
D,00000149,     -1861466,
D,00000150,     -1866395,
D,00000151,     -1870817,
D,00000152,     -1871407,
D,00000153,     -1868684,
D,00000154,     -1863901,
D,00000155,     -1858727,
D,00000156,     -1853977,
D,00000157,     -1853347,
D,00000158,     -1856329,
D,00000159,     -1861220,
D,00000160,     -1866521,
D,00000161,     -1870314,
D,00000162,     -1870992,
D,00000163,     -1868479,
D,00000164,     -1863326,
D,00000165,     -1858236,
D,00000166,     -1853934,
D,00000167,     -1853374,
D,00000168,     -1856139,
D,00000169,     -1861382,
D,00000170,     -1865943,
D,00000171,     -1869779,
D,00000172,     -1871152,
D,00000173,     -1868279,
D,00000174,     -1863269,
D,00000175,     -1858319,
D,00000176,     -1854156,
D,00000177,     -1853004,
D,00000178,     -1855632,
D,00000179,     -1860786,
D,00000180,     -1866038,
D,00000181,     -1870024,
D,00000182,     -1870465,
D,00000183,     -1867939,
D,00000184,     -1863480,
D,00000185,     -1858288,
D,00000186,     -1853848,
D,00000187,     -1853136,
D,00000188,     -1855642,
D,00000189,     -1860506,
D,00000190,     -1865659,
D,00000191,     -1869919,
D,00000192,     -1870745,
D,00000193,     -1868299,
D,00000194,     -1863347,
D,00000195,     -1858332,
D,00000196,     -1854114,
D,00000197,     -1853666,
D,00000198,     -1856101,
D,00000199,     -1860894,
D,00000200,     -1865832,
D,00000201,     -1870107,
D,00000202,     -1871134,
D,00000203,     -1868606,
D,00000204,     -1863927,
D,00000205,     -1858794,
D,00000206,     -1854484,
D,00000207,     -1853412,
D,00000208,     -1855823,
D,00000209,     -1860616,
D,00000210,     -1865902,
D,00000211,     -1870234,
D,00000212,     -1870994,
D,00000213,     -1868676,
D,00000214,     -1863551,
D,00000215,     -1858414,
D,00000216,     -1854149,
D,00000217,     -1852979,
D,00000218,     -1855480,
D,00000219,     -1860288,
D,00000220,     -1865487,
D,00000221,     -1869509,
D,00000222,     -1870740,
D,00000223,     -1868334,
D,00000224,     -1863646,
D,00000225,     -1858667,
D,00000226,     -1854157,
D,00000227,     -1853117,
D,00000228,     -1855500,
D,00000229,     -1860628,
D,00000230,     -1865639,
D,00000231,     -1870261,
D,00000232,     -1871190,
D,00000233,     -1869255,
D,00000234,     -1864545,
D,00000235,     -1859461,
D,00000236,     -1854979,
D,00000237,     -1853729,
D,00000238,     -1856474,
D,00000239,     -1861296,
D,00000240,     -1866736,
D,00000241,     -1870852,
D,00000242,     -1871987,
D,00000243,     -1869577,
D,00000244,     -1864419,
D,00000245,     -1859512,
D,00000246,     -1855354,
D,00000247,     -1854076,
D,00000248,     -1856021,
D,00000249,     -1860719,
D,00000250,     -1865987,
D,00000251,     -1870445,
D,00000252,     -1871504,
D,00000253,     -1869303,
D,00000254,     -1864947,
D,00000255,     -1859625,
D,00000000,     -1854834,
D,00000001,     -1853902,
D,00000002,     -1855997,
D,00000003,     -1860605,
D,00000004,     -1865844,
D,00000005,     -1870137,
D,00000006,     -1870982,
D,00000007,     -1868841,
D,00000008,     -1864359,
D,00000009,     -1859094,
D,00000010,     -1854371,
D,00000011,     -1852949,
D,00000012,     -1854614,
D,00000013,     -1859231,
D,00000014,     -1864539,
D,00000015,     -1869055,
D,00000016,     -1869999,
D,00000017,     -1868168,
D,00000018,     -1863389,
D,00000019,     -1857909,
D,00000020,     -1853097,
D,00000021,     -1851744,
D,00000022,     -1853624,
D,00000023,     -1858514,
D,00000024,     -1863819,
D,00000025,     -1868615,
D,00000026,     -1870076,
D,00000027,     -1867727,
D,00000028,     -1862624,
D,00000029,     -1857217,
D,00000030,     -1852913,
D,00000031,     -1851744,
D,00000032,     -1853974,
D,00000033,     -1858775,
D,00000034,     -1863689,
D,00000035,     -1868539,
D,00000036,     -1870549,
D,00000037,     -1868871,
D,00000038,     -1864388,
D,00000039,     -1859819,
D,00000040,     -1855654,
D,00000041,     -1854166,
D,00000042,     -1856164,
D,00000043,     -1860887,
D,00000044,     -1865870,
D,00000045,     -1870752,
D,00000046,     -1872311,
D,00000047,     -1869859,
D,00000048,     -1865171,
D,00000049,     -1860257,
D,00000050,     -1855671,
D,00000051,     -1853855,
D,00000052,     -1855822,
D,00000053,     -1860757,
D,00000054,     -1865939,
D,00000055,     -1870973,
D,00000056,     -1872702,
D,00000057,     -1870681,
D,00000058,     -1865635,
D,00000059,     -1860497,
D,00000060,     -1856172,
D,00000061,     -1854642,
D,00000062,     -1856415,
D,00000063,     -1861355,
D,00000064,     -1866607,
D,00000065,     -1871391,
D,00000066,     -1872929,
D,00000067,     -1871071,
D,00000068,     -1866047,
D,00000069,     -1860438,
D,00000070,     -1855546,
D,00000071,     -1853983,
D,00000072,     -1855834,
D,00000073,     -1860117,
D,00000074,     -1864741,
D,00000075,     -1868943,
D,00000076,     -1869963,
D,00000077,     -1867051,
D,00000078,     -1860415,
D,00000079,     -1852491,
D,00000080,     -1845746,
D,00000081,     -1842979,
D,00000082,     -1844181,
D,00000083,     -1848984,
D,00000084,     -1854864,
D,00000085,     -1859998,
D,00000086,     -1861628,
D,00000087,     -1860553,
D,00000088,     -1856944,
D,00000089,     -1852511,
D,00000090,     -1847894,
D,00000091,     -1847742,
D,00000092,     -1851848,
D,00000093,     -1857931,
D,00000094,     -1865722,
D,00000095,     -1872150,
D,00000096,     -1874039,
D,00000097,     -1872242,
D,00000098,     -1867404,
D,00000099,     -1861892,
D,00000100,     -1856768,
D,00000101,     -1855046,
D,00000102,     -1857080,
D,00000103,     -1861369,
D,00000104,     -1866212,
D,00000105,     -1870966,
D,00000106,     -1872634,
D,00000107,     -1870543,
D,00000108,     -1865581,
D,00000109,     -1860882,
D,00000110,     -1856395,
D,00000111,     -1854450,
D,00000112,     -1855842,
D,00000113,     -1860176,
D,00000114,     -1864809,
D,00000115,     -1869274,
D,00000116,     -1871612,
D,00000117,     -1870333,
D,00000118,     -1865672,
D,00000119,     -1860746,
D,00000120,     -1855848,
D,00000121,     -1853671,
D,00000122,     -1855093,
D,00000123,     -1859661,
D,00000124,     -1864696,
D,00000125,     -1869502,
D,00000126,     -1871772,
D,00000127,     -1870362,
D,00000128,     -1865701,
D,00000129,     -1860551,
D,00000130,     -1855597,
D,00000131,     -1853672,
D,00000132,     -1855082,
D,00000133,     -1859141,
D,00000134,     -1864065,
D,00000135,     -1868966,
D,00000136,     -1871252,
D,00000137,     -1869951,
D,00000138,     -1865926,
D,00000139,     -1860959,
D,00000140,     -1856057,
D,00000141,     -1853929,
D,00000142,     -1854764,
D,00000143,     -1859041,
D,00000144,     -1864300,
D,00000145,     -1869341,
D,00000146,     -1871659,
D,00000147,     -1870793,
D,00000148,     -1866744,
D,00000149,     -1861572,
D,00000150,     -1855877,
D,00000151,     -1853334,
D,00000152,     -1854657,
D,00000153,     -1859144,
D,00000154,     -1864216,
D,00000155,     -1869001,
D,00000156,     -1871375,
D,00000157,     -1870281,
D,00000158,     -1865874,
D,00000159,     -1860687,
D,00000160,     -1855636,
D,00000161,     -1853242,
D,00000162,     -1854347,
D,00000163,     -1858609,
D,00000164,     -1863754,
D,00000165,     -1868362,
D,00000166,     -1870681,
D,00000167,     -1869567,
D,00000168,     -1865231,
D,00000169,     -1859977,
D,00000170,     -1855214,
D,00000171,     -1852647,
D,00000172,     -1853294,
D,00000173,     -1857301,
D,00000174,     -1862581,
D,00000175,     -1867726,
D,00000176,     -1869882,
D,00000177,     -1868384,
D,00000178,     -1864378,
D,00000179,     -1859212,
D,00000180,     -1853871,
D,00000181,     -1850954,
D,00000182,     -1851921,
D,00000183,     -1856061,
D,00000184,     -1860632,
D,00000185,     -1865234,
D,00000186,     -1867541,
D,00000187,     -1866164,
D,00000188,     -1862171,
D,00000189,     -1857294,
D,00000190,     -1852292,
D,00000191,     -1849432,
D,00000192,     -1849932,
D,00000193,     -1853756,
D,00000194,     -1858487,
D,00000195,     -1863527,
D,00000196,     -1865885,
D,00000197,     -1864725,
D,00000198,     -1860447,
D,00000199,     -1854694,
D,00000200,     -1849979,
D,00000201,     -1847082,
D,00000202,     -1847552,
D,00000203,     -1851456,
D,00000204,     -1856497,
D,00000205,     -1861564,
D,00000206,     -1864579,
D,00000207,     -1863787,
D,00000208,     -1859528,
D,00000209,     -1854326,
D,00000210,     -1849435,
D,00000211,     -1846489,
D,00000212,     -1847316,
D,00000213,     -1851759,
D,00000214,     -1857059,
D,00000215,     -1862087,
D,00000216,     -1864913,
D,00000217,     -1864141,
D,00000218,     -1860441,
D,00000219,     -1855641,
D,00000220,     -1850952,
D,00000221,     -1848603,
D,00000222,     -1849625,
D,00000223,     -1853884,
D,00000224,     -1859609,
D,00000225,     -1865024,
D,00000226,     -1868125,
D,00000227,     -1867682,
D,00000228,     -1863961,
D,00000229,     -1859553,
D,00000230,     -1854756,
D,00000231,     -1852124,
D,00000232,     -1852897,
D,00000233,     -1856484,
D,00000234,     -1862073,
D,00000235,     -1867610,
D,00000236,     -1870489,
D,00000237,     -1870146,
D,00000238,     -1866366,
D,00000239,     -1861081,
D,00000240,     -1856195,
D,00000241,     -1853501,
D,00000242,     -1854157,
D,00000243,     -1858205,
D,00000244,     -1863429,
D,00000245,     -1868417,
D,00000246,     -1871394,
D,00000247,     -1870832,
D,00000248,     -1867082,
D,00000249,     -1862074,
D,00000250,     -1857272,
D,00000251,     -1854246,
D,00000252,     -1854826,
D,00000253,     -1858685,
D,00000254,     -1863677,
D,00000255,     -1868432,
D,00000000,     -1871774,
D,00000001,     -1871481,
D,00000002,     -1867649,
D,00000003,     -1862780,
D,00000004,     -1857488,
D,00000005,     -1854139,
D,00000006,     -1854691,
D,00000007,     -1858666,
D,00000008,     -1863841,
D,00000009,     -1869177,
D,00000010,     -1871944,
D,00000011,     -1871226,
D,00000012,     -1867790,
D,00000013,     -1862393,
D,00000014,     -1857218,
D,00000015,     -1854039,
D,00000016,     -1854638,
D,00000017,     -1858505,
D,00000018,     -1863497,
D,00000019,     -1868637,
D,00000020,     -1871672,
D,00000021,     -1871446,
D,00000022,     -1867977,
D,00000023,     -1862721,
D,00000024,     -1857356,
D,00000025,     -1854343,
D,00000026,     -1855181,
D,00000027,     -1858495,
D,00000028,     -1863434,
D,00000029,     -1868369,
D,00000030,     -1871221,
D,00000031,     -1870867,
D,00000032,     -1867262,
D,00000033,     -1862101,
D,00000034,     -1857181,
D,00000035,     -1854084,
D,00000036,     -1854356,
D,00000037,     -1858192,
D,00000038,     -1863066,
D,00000039,     -1868011,
D,00000040,     -1871128,
D,00000041,     -1870729,
D,00000042,     -1867212,
D,00000043,     -1862107,
D,00000044,     -1856809,
D,00000045,     -1853383,
D,00000046,     -1853992,
D,00000047,     -1857356,
D,00000048,     -1862649,
D,00000049,     -1867991,
D,00000050,     -1871122,
D,00000051,     -1870899,
D,00000052,     -1867493,
D,00000053,     -1861909,
D,00000054,     -1856667,
D,00000055,     -1853247,
D,00000056,     -1853892,
D,00000057,     -1857229,
D,00000058,     -1862502,
D,00000059,     -1868121,
D,00000060,     -1871587,
D,00000061,     -1871258,
D,00000062,     -1867476,
D,00000063,     -1862276,
D,00000064,     -1857268,
D,00000065,     -1854039,
D,00000066,     -1854257,
D,00000067,     -1857592,
D,00000068,     -1862415,
D,00000069,     -1867598,
D,00000070,     -1871259,
D,00000071,     -1870927,
D,00000072,     -1867541,
D,00000073,     -1862729,
D,00000074,     -1857274,
D,00000075,     -1853602,
D,00000076,     -1854147,
D,00000077,     -1857813,
D,00000078,     -1862912,
D,00000079,     -1867807,
D,00000080,     -1871290,
D,00000081,     -1871305,
D,00000082,     -1867826,
D,00000083,     -1862462,
D,00000084,     -1857357,
D,00000085,     -1853888,
D,00000086,     -1854134,
D,00000087,     -1857822,
D,00000088,     -1863117,
D,00000089,     -1867885,
D,00000090,     -1871593,
D,00000091,     -1871451,
D,00000092,     -1868322,
D,00000093,     -1863731,
D,00000094,     -1858559,
D,00000095,     -1854316,
D,00000096,     -1854330,
D,00000097,     -1857974,
D,00000098,     -1863547,
D,00000099,     -1868349,
D,00000100,     -1871643,
D,00000101,     -1871579,
D,00000102,     -1868164,
D,00000103,     -1863006,
D,00000104,     -1857907,
D,00000105,     -1854443,
D,00000106,     -1854326,
D,00000107,     -1857186,
D,00000108,     -1862336,
D,00000109,     -1867577,
D,00000110,     -1871483,
D,00000111,     -1871824,
D,00000112,     -1868677,
D,00000113,     -1863430,
D,00000114,     -1858399,
D,00000115,     -1854609,
D,00000116,     -1854717,
D,00000117,     -1857976,
D,00000118,     -1863246,
D,00000119,     -1868506,
D,00000120,     -1872174,
D,00000121,     -1872157,
D,00000122,     -1868789,
D,00000123,     -1863723,
D,00000124,     -1858772,
D,00000125,     -1854927,
D,00000126,     -1855044,
D,00000127,     -1858214,
D,00000128,     -1863025,
D,00000129,     -1867806,
D,00000130,     -1871737,
D,00000131,     -1871744,
D,00000132,     -1868703,
D,00000133,     -1863674,
D,00000134,     -1858646,
D,00000135,     -1855008,
D,00000136,     -1854681,
D,00000137,     -1857646,
D,00000138,     -1862169,
D,00000139,     -1866969,
D,00000140,     -1871098,
D,00000141,     -1871385,
D,00000142,     -1868247,
D,00000143,     -1863161,
D,00000144,     -1857672,
D,00000145,     -1853514,
D,00000146,     -1853193,
D,00000147,     -1856072,
D,00000148,     -1860949,
D,00000149,     -1866201,
D,00000150,     -1870231,
D,00000151,     -1870184,
D,00000152,     -1867370,
D,00000153,     -1862265,
D,00000154,     -1857276,
D,00000155,     -1853164,
D,00000156,     -1852681,
D,00000157,     -1855602,
D,00000158,     -1860344,
D,00000159,     -1865294,
D,00000160,     -1869375,
D,00000161,     -1869344,
D,00000162,     -1866377,
D,00000163,     -1861754,
D,00000164,     -1856417,
D,00000165,     -1852959,
D,00000166,     -1852824,
D,00000167,     -1855564,
D,00000168,     -1860863,
D,00000169,     -1866304,
D,00000170,     -1870607,
D,00000171,     -1871183,
D,00000172,     -1868664,
D,00000173,     -1863972,
D,00000174,     -1859143,
D,00000175,     -1855311,
D,00000176,     -1854385,
D,00000177,     -1857000,
D,00000178,     -1862401,
D,00000179,     -1867507,
D,00000180,     -1871361,
D,00000181,     -1871696,
D,00000182,     -1869363,
D,00000183,     -1864601,
D,00000184,     -1859569,
D,00000185,     -1855383,
D,00000186,     -1854606,
D,00000187,     -1857042,
D,00000188,     -1862195,
D,00000189,     -1867607,
D,00000190,     -1871504,
D,00000191,     -1872125,
D,00000192,     -1869359,
D,00000193,     -1864405,
D,00000194,     -1859282,
D,00000195,     -1854985,
D,00000196,     -1854253,
D,00000197,     -1857054,
D,00000198,     -1862293,
D,00000199,     -1867574,
D,00000200,     -1871534,
D,00000201,     -1871896,
D,00000202,     -1868924,
D,00000203,     -1864202,
D,00000204,     -1859202,
D,00000205,     -1854888,
D,00000206,     -1853732,
D,00000207,     -1856418,
D,00000208,     -1861151,
D,00000209,     -1865183,
D,00000210,     -1867419,
D,00000211,     -1865920,
D,00000212,     -1860642,
D,00000213,     -1855032,
D,00000214,     -1849560,
D,00000215,     -1845162,
D,00000216,     -1844924,
D,00000217,     -1847777,
D,00000218,     -1852506,
D,00000219,     -1857838,
D,00000220,     -1863066,
D,00000221,     -1864477,
D,00000222,     -1862676,
D,00000223,     -1858771,
D,00000224,     -1855533,
D,00000225,     -1852871,
D,00000226,     -1854029,
D,00000227,     -1858690,
D,00000228,     -1864439,
D,00000229,     -1869147,
D,00000230,     -1872916,
D,00000231,     -1873478,
D,00000232,     -1871059,
D,00000233,     -1866080,
D,00000234,     -1861126,
D,00000235,     -1856886,
D,00000236,     -1855907,
D,00000237,     -1857780,
D,00000238,     -1862079,
D,00000239,     -1866769,
D,00000240,     -1871316,
D,00000241,     -1872453,
D,00000242,     -1870421,
D,00000243,     -1865636,
D,00000244,     -1860577,
D,00000245,     -1856015,
D,00000246,     -1854567,
D,00000247,     -1856598,
D,00000248,     -1861356,
D,00000249,     -1866346,
D,00000250,     -1870617,
D,00000251,     -1872155,
D,00000252,     -1869951,
D,00000253,     -1864809,
D,00000254,     -1859554,
D,00000255,     -1855137,
D,00000000,     -1853919,
D,00000001,     -1856128,
D,00000002,     -1861203,
D,00000003,     -1866337,
D,00000004,     -1870691,
D,00000005,     -1871664,
D,00000006,     -1869461,
D,00000007,     -1864730,
D,00000008,     -1859696,
D,00000009,     -1855465,
D,00000010,     -1854513,
D,00000011,     -1856404,
D,00000012,     -1861071,
D,00000013,     -1866321,
D,00000014,     -1871077,
D,00000015,     -1872136,
D,00000016,     -1869935,
D,00000017,     -1865092,
D,00000018,     -1859788,
D,00000019,     -1855198,
D,00000020,     -1853893,
D,00000021,     -1856092,
D,00000022,     -1861002,
D,00000023,     -1866248,
D,00000024,     -1871061,
D,00000025,     -1872015,
D,00000026,     -1869684,
D,00000027,     -1865266,
D,00000028,     -1860204,
D,00000029,     -1855196,
D,00000030,     -1853764,
D,00000031,     -1856157,
D,00000032,     -1860949,
D,00000033,     -1866305,
D,00000034,     -1870901,
D,00000035,     -1871431,
D,00000036,     -1869249,
D,00000037,     -1864453,
D,00000038,     -1859392,
D,00000039,     -1854771,
D,00000040,     -1853305,
D,00000041,     -1855166,
D,00000042,     -1859805,
D,00000043,     -1864990,
D,00000044,     -1869821,
D,00000045,     -1871119,
D,00000046,     -1868989,
D,00000047,     -1863985,
D,00000048,     -1858664,
D,00000049,     -1853422,
D,00000050,     -1852054,
D,00000051,     -1854317,
D,00000052,     -1859389,
D,00000053,     -1864312,
D,00000054,     -1868714,
D,00000055,     -1869896,
D,00000056,     -1867741,
D,00000057,     -1862729,
D,00000058,     -1857461,
D,00000059,     -1853046,
D,00000060,     -1851175,
D,00000061,     -1852646,
D,00000062,     -1857236,
D,00000063,     -1861854,
D,00000064,     -1866181,
D,00000065,     -1867117,
D,00000066,     -1865452,
D,00000067,     -1860522,
D,00000068,     -1854972,
D,00000069,     -1850223,
D,00000070,     -1848618,
D,00000071,     -1850011,
D,00000072,     -1854519,
D,00000073,     -1859436,
D,00000074,     -1864024,
D,00000075,     -1865311,
D,00000076,     -1863638,
D,00000077,     -1858662,
D,00000078,     -1853267,
D,00000079,     -1848594,
D,00000080,     -1846492,
D,00000081,     -1848157,
D,00000082,     -1853222,
D,00000083,     -1858394,
D,00000084,     -1863043,
D,00000085,     -1864666,
D,00000086,     -1862994,
D,00000087,     -1858128,
D,00000088,     -1853002,
D,00000089,     -1848316,
D,00000090,     -1846976,
D,00000091,     -1848843,
D,00000092,     -1852962,
D,00000093,     -1858414,
D,00000094,     -1863446,
D,00000095,     -1865619,
D,00000096,     -1864111,
D,00000097,     -1859926,
D,00000098,     -1855424,
D,00000099,     -1850916,
D,00000100,     -1849568,
D,00000101,     -1851609,
D,00000102,     -1856591,
D,00000103,     -1861704,
D,00000104,     -1866655,
D,00000105,     -1868532,
D,00000106,     -1866918,
D,00000107,     -1862736,
D,00000108,     -1858065,
D,00000109,     -1853698,
D,00000110,     -1852169,
D,00000111,     -1853944,
D,00000112,     -1858661,
D,00000113,     -1864041,
D,00000114,     -1869270,
D,00000115,     -1871252,
D,00000116,     -1869825,
D,00000117,     -1865461,
D,00000118,     -1860526,
D,00000119,     -1855418,
D,00000120,     -1853590,
D,00000121,     -1855354,
D,00000122,     -1860021,
D,00000123,     -1865227,
D,00000124,     -1870421,
D,00000125,     -1872489,
D,00000126,     -1870937,
D,00000127,     -1865985,
D,00000128,     -1860836,
D,00000129,     -1856201,
D,00000130,     -1854329,
D,00000131,     -1855539,
D,00000132,     -1860038,
D,00000133,     -1865428,
D,00000134,     -1870254,
D,00000135,     -1872367,
D,00000136,     -1871039,
D,00000137,     -1866327,
D,00000138,     -1861414,
D,00000139,     -1856797,
D,00000140,     -1854482,
D,00000141,     -1855834,
D,00000142,     -1860147,
D,00000143,     -1865501,
D,00000144,     -1870644,
D,00000145,     -1872506,
D,00000146,     -1871164,
D,00000147,     -1866935,
D,00000148,     -1862072,
D,00000149,     -1856952,
D,00000150,     -1854587,
D,00000151,     -1855770,
D,00000152,     -1860248,
D,00000153,     -1865017,
D,00000154,     -1869681,
D,00000155,     -1871946,
D,00000156,     -1870907,
D,00000157,     -1866641,
D,00000158,     -1861126,
D,00000159,     -1855761,
D,00000160,     -1853806,
D,00000161,     -1855425,
D,00000162,     -1859712,
D,00000163,     -1864479,
D,00000164,     -1869254,
D,00000165,     -1871484,
D,00000166,     -1870406,
D,00000167,     -1866037,
D,00000168,     -1860937,
D,00000169,     -1856016,
D,00000170,     -1853967,
D,00000171,     -1854984,
D,00000172,     -1859042,
D,00000173,     -1864234,
D,00000174,     -1869028,
D,00000175,     -1871159,
D,00000176,     -1870402,
D,00000177,     -1866631,
D,00000178,     -1861201,
D,00000179,     -1856436,
D,00000180,     -1854141,
D,00000181,     -1855022,
D,00000182,     -1859372,
D,00000183,     -1864328,
D,00000184,     -1869332,
D,00000185,     -1871823,
D,00000186,     -1870426,
D,00000187,     -1866056,
D,00000188,     -1861377,
D,00000189,     -1856462,
D,00000190,     -1853954,
D,00000191,     -1855004,
D,00000192,     -1859415,
D,00000193,     -1864377,
D,00000194,     -1869565,
D,00000195,     -1872354,
D,00000196,     -1871109,
D,00000197,     -1866629,
D,00000198,     -1861846,
D,00000199,     -1856385,
D,00000200,     -1853677,
D,00000201,     -1854516,
D,00000202,     -1858555,
D,00000203,     -1863991,
D,00000204,     -1868967,
D,00000205,     -1871484,
D,00000206,     -1870431,
D,00000207,     -1866111,
D,00000208,     -1861005,
D,00000209,     -1856422,
D,00000210,     -1853866,
D,00000211,     -1854672,
D,00000212,     -1859018,
D,00000213,     -1864150,
D,00000214,     -1869079,
D,00000215,     -1871432,
D,00000216,     -1870362,
D,00000217,     -1866421,
D,00000218,     -1861379,
D,00000219,     -1856393,
D,00000220,     -1853940,
D,00000221,     -1855057,
D,00000222,     -1859344,
D,00000223,     -1864297,
D,00000224,     -1869367,
D,00000225,     -1871937,
D,00000226,     -1870901,
D,00000227,     -1866977,
D,00000228,     -1861610,
D,00000229,     -1856479,
D,00000230,     -1854004,
D,00000231,     -1854827,
D,00000232,     -1858916,
D,00000233,     -1864127,
D,00000234,     -1868999,
D,00000235,     -1871467,
D,00000236,     -1870898,
D,00000237,     -1866722,
D,00000238,     -1861302,
D,00000239,     -1856171,
D,00000240,     -1853817,
D,00000241,     -1854792,
D,00000242,     -1858777,
D,00000243,     -1863567,
D,00000244,     -1868415,
D,00000245,     -1871085,
D,00000246,     -1870289,
D,00000247,     -1866467,
D,00000248,     -1861337,
D,00000249,     -1856139,
D,00000250,     -1852891,
D,00000251,     -1853459,
D,00000252,     -1857125,
D,00000253,     -1862326,
D,00000254,     -1867515,
D,00000255,     -1870451,
D,00000000,     -1869755,
D,00000001,     -1865947,
D,00000002,     -1860683,
D,00000003,     -1855686,
D,00000004,     -1852724,
D,00000005,     -1853277,
D,00000006,     -1857194,
D,00000007,     -1862106,
D,00000008,     -1866916,
D,00000009,     -1869562,
D,00000010,     -1868748,
D,00000011,     -1864857,
D,00000012,     -1860048,
D,00000013,     -1855190,
D,00000014,     -1852355,
D,00000015,     -1853250,
D,00000016,     -1856717,
D,00000017,     -1861979,
D,00000018,     -1867480,
D,00000019,     -1870628,
D,00000020,     -1870383,
D,00000021,     -1867101,
D,00000022,     -1862573,
D,00000023,     -1857713,
D,00000024,     -1854630,
D,00000025,     -1854886,
D,00000026,     -1858719,
D,00000027,     -1863937,
D,00000028,     -1868498,
D,00000029,     -1871716,
D,00000030,     -1871398,
D,00000031,     -1867731,
D,00000032,     -1862812,
D,00000033,     -1857959,
D,00000034,     -1854844,
D,00000035,     -1854837,
D,00000036,     -1858574,
D,00000037,     -1864144,
D,00000038,     -1869226,
D,00000039,     -1871780,
D,00000040,     -1871190,
D,00000041,     -1867517,
D,00000042,     -1862488,
D,00000043,     -1857654,
D,00000044,     -1854412,
D,00000045,     -1854566,
D,00000046,     -1858351,
D,00000047,     -1863662,
D,00000048,     -1868951,
D,00000049,     -1872233,
D,00000050,     -1871657,
D,00000051,     -1867822,
D,00000052,     -1862931,
D,00000053,     -1857950,
D,00000054,     -1854566,
D,00000055,     -1854654,
D,00000056,     -1858234,
D,00000057,     -1862963,
D,00000058,     -1866719,
D,00000059,     -1868331,
D,00000060,     -1865942,
D,00000061,     -1860369,
D,00000062,     -1854198,
D,00000063,     -1848823,
D,00000064,     -1845024,
D,00000065,     -1845772,
D,00000066,     -1849761,
D,00000067,     -1854687,
D,00000068,     -1859629,
D,00000069,     -1863613,
D,00000070,     -1864197,
D,00000071,     -1861515,
D,00000072,     -1857551,
D,00000073,     -1854646,
D,00000074,     -1852979,
D,00000075,     -1855016,
D,00000076,     -1860453,
D,00000077,     -1865934,
D,00000078,     -1870584,
D,00000079,     -1873331,
D,00000080,     -1872717,
D,00000081,     -1869369,
D,00000082,     -1864211,
D,00000083,     -1859031,
D,00000084,     -1855849,
D,00000085,     -1855970,
D,00000086,     -1859298,
D,00000087,     -1863907,
D,00000088,     -1868801,
D,00000089,     -1872051,
D,00000090,     -1871632,
D,00000091,     -1868205,
D,00000092,     -1863215,
D,00000093,     -1858178,
D,00000094,     -1854620,
D,00000095,     -1854997,
D,00000096,     -1858437,
D,00000097,     -1863414,
D,00000098,     -1868275,
D,00000099,     -1871833,
D,00000100,     -1871904,
D,00000101,     -1868551,
D,00000102,     -1863421,
D,00000103,     -1858339,
D,00000104,     -1854481,
D,00000105,     -1854640,
D,00000106,     -1857865,
D,00000107,     -1862922,
D,00000108,     -1867900,
D,00000109,     -1871490,
D,00000110,     -1871132,
D,00000111,     -1868218,
D,00000112,     -1863156,
D,00000113,     -1858015,
D,00000114,     -1854422,
D,00000115,     -1854223,
D,00000116,     -1857374,
D,00000117,     -1862512,
D,00000118,     -1867883,
D,00000119,     -1871442,
D,00000120,     -1871267,
D,00000121,     -1868156,
D,00000122,     -1863026,
D,00000123,     -1857882,
D,00000124,     -1853986,
D,00000125,     -1854085,
D,00000126,     -1857329,
D,00000127,     -1862642,
D,00000128,     -1867993,
D,00000129,     -1871222,
D,00000130,     -1871277,
D,00000131,     -1868314,
D,00000132,     -1863123,
D,00000133,     -1858120,
D,00000134,     -1854171,
D,00000135,     -1854034,
D,00000136,     -1857190,
D,00000137,     -1862037,
D,00000138,     -1867012,
D,00000139,     -1870526,
D,00000140,     -1870553,
D,00000141,     -1867730,
D,00000142,     -1862691,
D,00000143,     -1857522,
D,00000144,     -1853495,
D,00000145,     -1853171,
D,00000146,     -1856418,
